2072	2073	2075	2077
2072	2073	2075	2079
2070	2073	2077	2080
2072	2073	2078	2080
2072	2073	2080	2081
2072	2074	2081	2083
2072	2074	2082	2084
2072	2073	2083	2084
2072	2074	2086	2085
2074	2074	2086	2087
2074	2073	2085	2088
2073	2074	2086	2090
2074	2074	2087	2090
2073	2074	2087	2090
2073	2075	2086	2092
2075	2074	2086	2092
2076	2075	2084	2092
2075	2074	2077	2092
2076	2073	2070	2093
2076	2073	2064	2091
2074	2074	2059	2090
2075	2074	2053	2090
2075	2074	2047	2089
2075	2075	2038	2088
2075	2076	2024	2086
2074	2076	2010	2087
2073	2075	1999	2086
2073	2073	1986	2085
2075	2074	1973	2084
2075	2077	1962	2083
2073	2074	1957	2082
2076	2075	1966	2082
2077	2076	1981	2080
2077	2076	1990	2080
2077	2076	1997	2080
2077	2076	2008	2080
2078	2075	2017	2080
2078	2075	2022	2080
2077	2075	2024	2079
2078	2075	2023	2077
2078	2074	2022	2077
2078	2075	2023	2077
2077	2074	2022	2075
2078	2073	2021	2076
2076	2075	2023	2077
2077	2075	2021	2075
2078	2075	2021	2076
2077	2075	2023	2077
2077	2075	2023	2076
2077	2075	2023	2075
2077	2076	2025	2075
2077	2075	2025	2076
2077	2075	2027	2076
2076	2075	2031	2076
2076	2075	2036	2075
2076	2075	2039	2074
2077	2074	2042	2075
2077	2075	2046	2075
2076	2075	2051	2074
2076	2075	2054	2075
2075	2075	2057	2075
2075	2074	2060	2073
2077	2075	2064	2073
2076	2075	2067	2073
2075	2073	2071	2072
2077	2072	2075	2072
2076	2071	2077	2073
2075	2071	2076	2071
2077	2072	2077	2071
2077	2074	2077	2071
2076	2073	2077	2071
2075	2072	2077	2071
2077	2073	2078	2070
2077	2073	2079	2070
2076	2072	2079	2070
2077	2074	2078	2069
2076	2073	2079	2068
2075	2072	2079	2068
2076	2073	2078	2068
2077	2073	2079	2067
2077	2074	2079	2064
2076	2074	2078	2065
2077	2075	2076	2064
2077	2076	2077	2065
2077	2076	2077	2065
2077	2077	2076	2064
2076	2078	2076	2064
2078	2079	2076	2064
2077	2078	2075	2065
2078	2077	2076	2065
2077	2077	2077	2065
2078	2076	2078	2063
2078	2075	2076	2061
2077	2075	2078	2061
2077	2074	2080	2063
2079	2073	2080	2063
2080	2074	2080	2064
2078	2075	2080	2066
2078	2073	2080	2067
2079	2073	2080	2067
2078	2074	2082	2069
2078	2074	2081	2072
2078	2075	2081	2072
2077	2074	2080	2072
2076	2074	2080	2072
2076	2073	2080	2073
2076	2074	2080	2075
2077	2072	2080	2076
2078	2072	2079	2077
2077	2073	2079	2079
2077	2073	2080	2082
2078	2073	2080	2085
2080	2073	2081	2089
2079	2072	2081	2091
2080	2072	2081	2094
2082	2073	2082	2100
2080	2074	2083	2101
2080	2074	2083	2100
2081	2073	2084	2098
2080	2073	2083	2097
2079	2073	2082	2094
2079	2073	2083	2094
2078	2073	2083	2094
2077	2073	2084	2092
2077	2071	2084	2090
2077	2073	2084	2090
2076	2071	2083	2088
2076	2072	2083	2087
2076	2072	2084	2084
2077	2071	2084	2083
2078	2072	2083	2084
2078	2072	2082	2083
2081	2071	2083	2081
2082	2073	2084	2081
2084	2070	2084	2080
2084	2071	2084	2078
2083	2073	2084	2077
2084	2071	2084	2077
2082	2070	2084	2076
2082	2071	2084	2074
2082	2072	2085	2073
2083	2070	2085	2072
2084	2070	2085	2071
2085	2071	2085	2069
2082	2071	2085	2068
2081	2070	2085	2067
2081	2070	2086	2067
2082	2070	2085	2066
2080	2070	2086	2067
2082	2070	2084	2066
2084	2070	2086	2066
2082	2069	2086	2065
2082	2070	2085	2066
2084	2071	2085	2065
2084	2072	2086	2064
2084	2074	2086	2065
2084	2073	2087	2066
2084	2073	2087	2066
2085	2073	2087	2065
2086	2073	2089	2064
2086	2073	2088	2065
2086	2074	2087	2067
2087	2074	2087	2065
2085	2074	2088	2063
2085	2073	2088	2064
2086	2074	2089	2064
2088	2075	2089	2064
2090	2076	2088	2064
2089	2076	2088	2064
2087	2076	2089	2065
2085	2076	2087	2065
2087	2075	2087	2063
2088	2076	2087	2064
2087	2076	2085	2065
2087	2076	2085	2066
2085	2074	2085	2065
2084	2076	2086	2064
2085	2077	2087	2064
2086	2077	2087	2063
2085	2077	2087	2061
2087	2078	2086	2063
2085	2076	2087	2062
2086	2076	2086	2063
2088	2077	2086	2062
2089	2076	2087	2063
2089	2074	2088	2064
2088	2072	2087	2064
2088	2071	2087	2066
2088	2071	2088	2063
2090	2072	2085	2062
2088	2072	2085	2062
2087	2074	2086	2063
2087	2075	2085	2063
2087	2075	2084	2062
2086	2074	2084	2062
2088	2076	2084	2062
2088	2076	2083	2062
2084	2076	2082	2061
2084	2077	2084	2060
2085	2077	2084	2061
2084	2078	2084	2061
2084	2079	2084	2060
2084	2079	2083	2060
2082	2079	2083	2061
2083	2079	2083	2061
2082	2079	2082	2060
2081	2079	2082	2061
2082	2079	2083	2060
2083	2080	2083	2061
2081	2082	2081	2062
2082	2081	2079	2062
2080	2080	2079	2060
2078	2079	2079	2060
2079	2080	2078	2059
2078	2079	2078	2059
2077	2076	2076	2060
2078	2078	2077	2061
2079	2078	2078	2060
2077	2078	2076	2060
2077	2078	2076	2059
2078	2078	2076	2060
2077	2076	2076	2060
2075	2075	2075	2061
2075	2077	2074	2060
2074	2076	2074	2059
2074	2073	2072	2060
2073	2072	2072	2060
2072	2069	2073	2061
2073	2065	2072	2061
2073	2064	2071	2061
2073	2063	2072	2060
2074	2060	2072	2059
2073	2056	2071	2060
2073	2052	2072	2060
2072	2049	2071	2060
2072	2044	2070	2059
2071	2040	2071	2059
2072	2038	2070	2059
2074	2034	2068	2060
2073	2029	2069	2060
2075	2026	2068	2061
2077	2021	2067	2061
2075	2015	2067	2061
2077	2010	2068	2060
2078	2005	2067	2061
2077	2002	2065	2062
2077	1999	2066	2062
2078	2000	2065	2062
2077	2000	2063	2061
2077	1999	2063	2061
2079	1997	2064	2062
2079	1996	2064	2059
2078	1997	2063	2060
2080	1997	2060	2062
2082	2001	2059	2061
2080	2003	2058	2060
2081	2004	2056	2062
2080	2006	2056	2061
2080	2011	2056	2060
2081	2012	2053	2061
2083	2015	2051	2061
2084	2019	2051	2062
2086	2023	2051	2063
2088	2025	2049	2064
2090	2029	2047	2064
2092	2032	2046	2063
2094	2036	2046	2063
2099	2038	2045	2063
2099	2036	2046	2063
2100	2036	2047	2064
2104	2036	2049	2065
2108	2036	2050	2066
2109	2038	2053	2065
2112	2039	2054	2065
2115	2039	2053	2065
2117	2038	2054	2065
2120	2039	2055	2064
2124	2039	2054	2066
2123	2040	2053	2067
2123	2040	2053	2067
2122	2040	2053	2068
2120	2042	2054	2070
2120	2042	2051	2070
2122	2043	2044	2070
2120	2044	2036	2070
2117	2045	2032	2070
2117	2046	2027	2071
2114	2049	2021	2070
2108	2048	2017	2070
2105	2049	2013	2071
2105	2049	2011	2070
2102	2047	2011	2070
2099	2049	2009	2070
2098	2052	2006	2071
2097	2051	2005	2070
2096	2050	2002	2069
2096	2051	2001	2070
2095	2053	2003	2071
2094	2054	2005	2071
2094	2055	2008	2072
2093	2056	2008	2072
2091	2057	2009	2073
2094	2059	2011	2072
2094	2062	2015	2072
2091	2064	2017	2074
2091	2065	2021	2073
2092	2067	2026	2072
2091	2068	2030	2073
2089	2069	2033	2072
2089	2071	2037	2071
2089	2072	2039	2072
2090	2072	2043	2072
2091	2073	2046	2072
2088	2070	2049	2073
2087	2071	2052	2073
2087	2071	2055	2073
2086	2072	2058	2074
2085	2072	2060	2074
2084	2073	2065	2074
2084	2072	2066	2073
2082	2074	2067	2073
2081	2073	2069	2072
2079	2072	2072	2073
2080	2075	2074	2073
2079	2075	2077	2072
2079	2074	2078	2073
2080	2074	2078	2073
2079	2076	2079	2072
2078	2075	2080	2073
2079	2076	2079	2073
2079	2077	2081	2075
2078	2078	2082	2076
2077	2077	2082	2075
2077	2077	2082	2075
2077	2078	2083	2076
2076	2078	2083	2076
2076	2077	2083	2074
2076	2076	2083	2074
2077	2077	2082	2075
2076	2077	2082	2075
2076	2077	2083	2076
2077	2077	2083	2078
2077	2077	2083	2078
2077	2077	2084	2076
2077	2079	2083	2076
2077	2078	2082	2074
2077	2077	2082	2074
2076	2079	2081	2074
2078	2079	2081	2075
2076	2079	2082	2076
2076	2080	2082	2075
2076	2079	2084	2075
2077	2079	2084	2075
2076	2079	2084	2075
2076	2079	2082	2075
2075	2079	2083	2075
2076	2080	2083	2075
2077	2081	2083	2076
2075	2081	2084	2076
2075	2080	2084	2076
2075	2080	2084	2077
2073	2081	2084	2077
2074	2080	2084	2076
2074	2081	2083	2075
2073	2082	2084	2076
2074	2083	2086	2076
2075	2082	2087	2076
2075	2083	2086	2075
2075	2083	2086	2073
2077	2083	2086	2073
2077	2084	2084	2075
2075	2084	2085	2075
2077	2083	2087	2074
2077	2082	2086	2073
2077	2082	2087	2074
2077	2083	2088	2074
2077	2082	2086	2075
2077	2083	2085	2076
2077	2084	2087	2076
2076	2084	2087	2076
2076	2084	2087	2077
2076	2086	2087	2077
2076	2086	2087	2076
2076	2086	2087	2077
2076	2086	2088	2076
2076	2087	2089	2076
2075	2087	2089	2075
2075	2087	2089	2075
2075	2088	2088	2073
2075	2088	2089	2074
2075	2089	2087	2075
2075	2090	2088	2074
2075	2089	2087	2073
2076	2090	2087	2074
2075	2092	2089	2074
2075	2091	2091	2076
2076	2092	2090	2076
2076	2092	2090	2074
2074	2094	2091	2075
2075	2093	2091	2076
2076	2092	2092	2075
2075	2093	2092	2075
2072	2093	2092	2076
2073	2092	2092	2077
2071	2092	2093	2075
2069	2093	2094	2074
2071	2095	2094	2075
2071	2095	2093	2075
2071	2094	2093	2074
2070	2095	2093	2073
2070	2096	2092	2074
2071	2098	2091	2074
2070	2099	2091	2074
2070	2102	2092	2075
2070	2103	2093	2076
2069	2104	2092	2076
2069	2107	2091	2075
2067	2109	2092	2075
2069	2109	2092	2075
2069	2111	2091	2075
2068	2112	2091	2075
2068	2112	2091	2076
2070	2114	2091	2075
2069	2117	2093	2075
2067	2115	2093	2075
2070	2116	2093	2077
2071	2119	2094	2076
2069	2122	2094	2076
2068	2124	2092	2076
2069	2125	2092	2076
2069	2126	2092	2076
2070	2129	2093	2076
2069	2131	2092	2077
2068	2132	2090	2077
2069	2133	2091	2076
2071	2133	2092	2076
2070	2135	2091	2076
2069	2135	2089	2077
2069	2137	2087	2076
2069	2137	2089	2076
2068	2137	2089	2077
2068	2138	2089	2076
2070	2139	2087	2075
2070	2139	2087	2076
2068	2139	2086	2076
2068	2138	2085	2077
2069	2141	2084	2076
2068	2140	2087	2076
2066	2139	2086	2077
2067	2141	2085	2076
2067	2141	2085	2075
2066	2140	2085	2076
2066	2140	2086	2077
2066	2141	2086	2075
2065	2141	2086	2076
2064	2142	2085	2078
2064	2141	2084	2077
2063	2139	2082	2077
2063	2138	2082	2078
2065	2140	2085	2077
2064	2139	2083	2077
2064	2138	2082	2078
2065	2137	2082	2078
2064	2136	2081	2080
2061	2134	2080	2082
2061	2135	2080	2084
2060	2134	2081	2084
2060	2133	2080	2086
2061	2132	2080	2088
2060	2131	2081	2090
2060	2129	2079	2090
2059	2129	2080	2090
2059	2126	2080	2091
2059	2125	2079	2095
2060	2124	2077	2097
2061	2122	2077	2096
2061	2122	2075	2098
2061	2122	2077	2100
2061	2122	2076	2103
2062	2122	2077	2105
2060	2121	2078	2107
2063	2120	2078	2110
2065	2120	2078	2114
2064	2119	2077	2115
2064	2120	2079	2116
2063	2120	2078	2116
2064	2118	2078	2119
2063	2115	2077	2121
2064	2116	2077	2121
2064	2117	2077	2123
2064	2114	2077	2124
2064	2113	2076	2125
2066	2113	2077	2126
2064	2110	2076	2127
2066	2109	2076	2127
2067	2107	2077	2127
2067	2106	2078	2130
2066	2105	2077	2130
2067	2103	2078	2130
2068	2102	2077	2132
2067	2101	2077	2134
2068	2101	2077	2135
2068	2100	2077	2135
2068	2098	2076	2137
2069	2097	2077	2137
2069	2097	2077	2137
2069	2095	2075	2137
2071	2094	2075	2136
2071	2093	2076	2137
2072	2092	2077	2137
2072	2091	2078	2135
2073	2092	2077	2135
2072	2092	2077	2132
2072	2091	2077	2131
2071	2089	2078	2129
2072	2089	2078	2128
2072	2090	2078	2126
2074	2089	2079	2124
2074	2089	2078	2121
2075	2088	2077	2121
2075	2087	2077	2120
2075	2086	2076	2119
2076	2088	2076	2118
2077	2087	2076	2116
2076	2085	2074	2113
2077	2082	2072	2113
2077	2083	2073	2114
2076	2083	2074	2112
2076	2082	2073	2111
2077	2082	2074	2110
2077	2084	2075	2110
2077	2083	2075	2110
2078	2082	2075	2109
2079	2083	2077	2110
2078	2082	2077	2109
2077	2080	2076	2107
2079	2080	2079	2107
2079	2081	2079	2106
2080	2081	2077	2105
2080	2081	2077	2104
2079	2080	2079	2103
2079	2081	2077	2102
2078	2080	2077	2098
2079	2079	2077	2094
2079	2078	2076	2093
2078	2080	2075	2091
2079	2080	2074	2086
2078	2079	2073	2083
2078	2080	2074	2082
2079	2080	2074	2081
2077	2078	2074	2079
2078	2078	2074	2078
2078	2079	2077	2076
2077	2077	2076	2072
2077	2076	2075	2070
2078	2077	2078	2067
2077	2078	2079	2067
2077	2077	2077	2067
2078	2079	2077	2067
2078	2079	2079	2066
2076	2079	2077	2066
2076	2080	2077	2064
2077	2081	2077	2065
2078	2080	2076	2064
2077	2080	2076	2064
2078	2080	2076	2063
2078	2080	2076	2063
2077	2080	2076	2062
2077	2082	2077	2061
2077	2081	2077	2061
2077	2080	2076	2061
2075	2080	2077	2060
2075	2079	2077	2060
2075	2079	2077	2060
2076	2080	2078	2059
2076	2079	2078	2058
2075	2078	2078	2057
2075	2079	2078	2058
2077	2079	2080	2058
2076	2079	2080	2057
2075	2079	2081	2057
2075	2079	2080	2056
2077	2077	2080	2055
2078	2079	2080	2055
2079	2080	2080	2055
2079	2080	2080	2053
2079	2079	2079	2053
2080	2079	2079	2053
2078	2079	2078	2052
2077	2080	2075	2053
2076	2080	2076	2053
2077	2079	2077	2051
2075	2079	2077	2051
2075	2079	2077	2052
2076	2077	2078	2052
2076	2078	2078	2049
2076	2079	2078	2049
2077	2079	2079	2051
2077	2078	2080	2052
2076	2078	2079	2050
2077	2078	2079	2049
2077	2078	2080	2049
2075	2077	2080	2049
2077	2077	2080	2048
2079	2077	2081	2049
2078	2077	2080	2049
2077	2077	2080	2049
2076	2077	2078	2048
2077	2078	2078	2047
2077	2078	2077	2047
2076	2078	2075	2046
2076	2078	2075	2047
2076	2079	2076	2047
2076	2078	2075	2046
2075	2077	2075	2046
2075	2076	2076	2045
2076	2075	2077	2045
2074	2075	2077	2045
2074	2074	2077	2045
2074	2075	2075	2045
2073	2075	2076	2043
2074	2075	2077	2044
2074	2075	2077	2045
2073	2075	2076	2044
2073	2075	2077	2044
2074	2076	2077	2044
2074	2076	2077	2042
2074	2076	2077	2043
2075	2075	2076	2043
2075	2076	2077	2043
2074	2074	2076	2043
2074	2073	2075	2042
2074	2073	2077	2042
2073	2072	2077	2041
2074	2071	2076	2041
2074	2073	2076	2041
2075	2072	2076	2040
2076	2070	2077	2039
2078	2071	2077	2040
2079	2071	2077	2041
2083	2070	2076	2041
2085	2070	2077	2040
2085	2068	2078	2040
2088	2069	2077	2039
2090	2071	2077	2038
2092	2072	2078	2039
2091	2072	2077	2039
2092	2071	2076	2039
2092	2072	2076	2039
2093	2071	2077	2038
2094	2072	2077	2039
2093	2072	2077	2039
2091	2071	2077	2039
2089	2072	2077	2039
2086	2072	2077	2038
2083	2071	2075	2038
2079	2072	2075	2038
2077	2070	2076	2039
2075	2072	2076	2040
2072	2072	2077	2040
2067	2071	2076	2041
2060	2073	2076	2040
2055	2073	2076	2040
2049	2073	2077	2040
2045	2072	2076	2041
2040	2072	2076	2041
2033	2073	2076	2041
2025	2073	2076	2041
2018	2073	2076	2041
2009	2074	2076	2041
2001	2074	2076	2043
1993	2073	2076	2043
1986	2072	2075	2042
1981	2073	2074	2044
1981	2072	2075	2043
1984	2073	2076	2044
1987	2072	2076	2045
1986	2073	2076	2046
1988	2073	2077	2046
1991	2072	2077	2046
1992	2071	2076	2048
1994	2070	2078	2049
2000	2070	2080	2049
2003	2070	2080	2050
2005	2069	2081	2051
2008	2069	2081	2050
2013	2071	2081	2050
2017	2071	2081	2049
2022	2071	2081	2052
2028	2073	2080	2050
2034	2073	2078	2051
2039	2071	2079	2051
2044	2072	2079	2053
2051	2072	2078	2053
2057	2072	2079	2052
2060	2073	2080	2052
2062	2072	2079	2052
2062	2073	2080	2055
2063	2072	2081	2054
2066	2072	2082	2053
2068	2073	2082	2055
2069	2074	2081	2057
2069	2075	2080	2058
2070	2075	2081	2057
2071	2075	2081	2058
2071	2075	2080	2058
2073	2074	2081	2060
2074	2075	2080	2062
2075	2074	2081	2061
2075	2074	2080	2062
2076	2074	2082	2062
2077	2073	2081	2062
2076	2073	2079	2063
2076	2073	2078	2066
2076	2072	2078	2067
2076	2073	2078	2067
2076	2073	2078	2067
2077	2073	2076	2067
2077	2073	2075	2071
2077	2073	2076	2071
2078	2073	2076	2073
2078	2073	2073	2073
2079	2073	2073	2073
2079	2072	2074	2071
2080	2073	2075	2071
2080	2073	2074	2072
2079	2072	2074	2071
2078	2071	2074	2071
2080	2072	2075	2071
2079	2072	2075	2071
2079	2071	2074	2071
2079	2069	2074	2072
2079	2069	2075	2070
2079	2068	2075	2070
2082	2068	2074	2071
2083	2067	2075	2070
2082	2070	2075	2070
2083	2070	2074	2070
2083	2071	2075	2069
2084	2072	2075	2070
2083	2074	2075	2068
2084	2074	2076	2068
2084	2074	2076	2069
2085	2074	2075	2071
2084	2073	2076	2070
2083	2073	2076	2071
2084	2073	2075	2072
2085	2072	2075	2071
2084	2072	2076	2071
2084	2072	2077	2073
2085	2073	2078	2073
2084	2073	2080	2073
2083	2073	2080	2071
2084	2072	2080	2070
2085	2072	2084	2071
2085	2074	2084	2072
2087	2075	2082	2072
2087	2074	2087	2072
2088	2073	2094	2071
2088	2076	2094	2072
2088	2076	2098	2072
2088	2074	2103	2072
2088	2073	2106	2072
2087	2074	2107	2071
2087	2074	2108	2071
2087	2073	2109	2071
2087	2072	2110	2072
2086	2072	2111	2073
2087	2071	2110	2074
2087	2071	2112	2075
2087	2071	2114	2074
2087	2071	2110	2074
2087	2072	2100	2075
2087	2071	2094	2074
2086	2072	2088	2074
2084	2073	2080	2075
2087	2072	2073	2073
2087	2072	2067	2072
2086	2073	2058	2074
2087	2072	2047	2074
2086	2073	2035	2073
2087	2073	2023	2073
2087	2071	2013	2073
2086	2070	2003	2073
2088	2072	1993	2075
2091	2073	1988	2076
2091	2072	1990	2074
2090	2071	1996	2074
2091	2071	2001	2074
2090	2070	2002	2072
2088	2071	2008	2074
2090	2071	2012	2076
2090	2070	2013	2075
2088	2071	2014	2073
2087	2072	2014	2074
2087	2071	2014	2074
2088	2071	2015	2074
2089	2073	2014	2073
2089	2072	2014	2074
2089	2072	2013	2073
2090	2074	2015	2071
2091	2073	2017	2069
2092	2072	2018	2067
2092	2073	2020	2064
2093	2072	2021	2065
2094	2072	2023	2062
2096	2072	2025	2061
2097	2072	2026	2060
2098	2071	2029	2056
2096	2071	2031	2052
2097	2071	2034	2049
2098	2070	2037	2049
2099	2070	2039	2046
2098	2069	2041	2043
2098	2071	2043	2041
2097	2071	2047	2039
2099	2070	2049	2037
2100	2072	2051	2033
2099	2074	2055	2031
2099	2073	2060	2030
2099	2074	2061	2026
2100	2074	2061	2024
2100	2073	2064	2023
2100	2073	2064	2018
2102	2074	2067	2015
2103	2074	2070	2014
2103	2074	2072	2011
2103	2075	2071	2008
2103	2074	2072	2006
2104	2074	2074	2005
2104	2074	2074	2005
2106	2072	2075	2008
2107	2072	2077	2008
2106	2071	2076	2008
2106	2071	2076	2009
2107	2071	2077	2009
2106	2071	2076	2009
2106	2072	2077	2010
2106	2072	2078	2012
2107	2071	2078	2011
2107	2072	2077	2012
2107	2073	2078	2013
2108	2072	2079	2013
2108	2073	2079	2013
2108	2072	2080	2013
2110	2072	2080	2012
2109	2071	2080	2012
2109	2073	2080	2013
2109	2073	2080	2011
2108	2072	2080	2011
2108	2071	2080	2013
2109	2071	2079	2014
2108	2070	2078	2014
2108	2071	2080	2016
2108	2071	2081	2016
2109	2070	2081	2018
2106	2070	2081	2019
2107	2068	2081	2020
2109	2070	2080	2019
2108	2072	2079	2020
2107	2072	2080	2020
2106	2071	2080	2020
2105	2072	2079	2020
2104	2072	2078	2018
2103	2072	2078	2019
2102	2072	2078	2020
2101	2072	2079	2020
2102	2071	2081	2020
2101	2073	2081	2021
2101	2071	2080	2023
2100	2071	2081	2023
2100	2071	2082	2023
2100	2072	2080	2025
2100	2071	2080	2028
2098	2072	2081	2034
2097	2073	2081	2037
2098	2072	2082	2040
2096	2072	2082	2045
2094	2072	2081	2048
2096	2072	2083	2049
2095	2072	2083	2050
2095	2073	2083	2051
2094	2072	2082	2052
2092	2070	2081	2054
2091	2072	2081	2056
2091	2073	2081	2056
2090	2071	2082	2058
2089	2072	2082	2062
2089	2073	2082	2064
2088	2072	2083	2065
2087	2072	2084	2068
2087	2072	2082	2071
2086	2072	2084	2073
2085	2071	2084	2076
2084	2072	2083	2076
2083	2072	2083	2076
2083	2073	2084	2078
2082	2072	2086	2080
2083	2072	2085	2081
2081	2072	2085	2082
2079	2072	2083	2084
2079	2071	2083	2083
2080	2070	2085	2082
2078	2071	2085	2082
2078	2071	2085	2081
2078	2070	2086	2081
2079	2071	2087	2082
2078	2073	2086	2082
2076	2072	2085	2080
2076	2070	2084	2081
2077	2070	2084	2083
2076	2072	2085	2083
2075	2072	2084	2082
2076	2071	2083	2082
2077	2072	2084	2082
2076	2072	2083	2083
2076	2071	2082	2085
2077	2070	2084	2085
2077	2070	2085	2084
2079	2069	2085	2084
2079	2069	2085	2083
2079	2069	2085	2083
2077	2068	2086	2084
2077	2068	2084	2084
2077	2070	2082	2086
2078	2070	2084	2087
2076	2071	2086	2087
2075	2071	2085	2085
2075	2071	2084	2085
2075	2072	2083	2088
2075	2071	2082	2088
2075	2072	2082	2089
2074	2072	2084	2091
2073	2071	2083	2092
2074	2072	2083	2093
2074	2072	2082	2094
2075	2072	2081	2096
2075	2073	2080	2097
2076	2073	2080	2098
2076	2072	2080	2099
2076	2071	2080	2100
2077	2071	2080	2101
2077	2071	2080	2102
2077	2070	2081	2104
2076	2070	2080	2104
2077	2070	2080	2103
2078	2070	2079	2104
2079	2070	2079	2104
2078	2070	2076	2103
2077	2070	2076	2103
2077	2069	2076	2104
2077	2069	2075	2103
2080	2070	2076	2105
2079	2071	2075	2106
2079	2070	2074	2107
2079	2071	2075	2107
2078	2072	2074	2107
2077	2071	2073	2109
2078	2072	2073	2112
2077	2073	2076	2112
2077	2072	2077	2110
2078	2071	2076	2111
2079	2071	2078	2113
2076	2070	2077	2113
2076	2070	2075	2111
2075	2070	2077	2112
2076	2071	2075	2112
2075	2072	2074	2112
2074	2070	2076	2111
2073	2072	2075	2111
2073	2071	2075	2112
2074	2073	2074	2112
2074	2072	2074	2111
2074	2072	2073	2110
2074	2073	2072	2111
2075	2073	2073	2111
2075	2072	2072	2110
2076	2073	2071	2110
2075	2073	2072	2111
2075	2073	2072	2112
2076	2073	2070	2110
2077	2074	2070	2110
2078	2074	2069	2112
2076	2073	2069	2113
2076	2075	2068	2112
2078	2077	2069	2113
2077	2076	2069	2113
2074	2076	2068	2114
2075	2077	2068	2116
2076	2076	2068	2114
2074	2076	2068	2113
2074	2076	2068	2113
2074	2076	2068	2112
2073	2075	2068	2112
2071	2075	2068	2113
2071	2077	2069	2112
2072	2075	2067	2113
2071	2075	2066	2110
2071	2077	2065	2110
2071	2077	2064	2110
2071	2076	2063	2110
2072	2076	2063	2110
2073	2076	2063	2110
2072	2076	2063	2110
2072	2076	2062	2110
2072	2076	2062	2111
2072	2076	2062	2111
2071	2075	2063	2109
2072	2074	2061	2109
2073	2075	2059	2108
2073	2075	2058	2107
2072	2075	2058	2106
2072	2076	2059	2105
2072	2075	2056	2102
2072	2074	2056	2103
2072	2074	2055	2104
2072	2075	2055	2101
2072	2075	2054	2100
2072	2075	2051	2100
2072	2076	2049	2101
2073	2075	2049	2098
2074	2074	2047	2098
2074	2074	2045	2098
2074	2073	2043	2096
2075	2073	2041	2095
2074	2076	2038	2096
2073	2075	2034	2096
2072	2072	2032	2092
2073	2074	2029	2093
2073	2075	2027	2094
2071	2074	2027	2093
2073	2073	2026	2090
2073	2074	2025	2093
2072	2073	2025	2093
2072	2070	2024	2091
2073	2072	2024	2091
2073	2073	2023	2092
2071	2070	2024	2091
2070	2071	2026	2089
2070	2072	2029	2088
2072	2072	2031	2088
2072	2072	2033	2088
2071	2072	2036	2089
2071	2072	2039	2088
2072	2072	2040	2087
2072	2072	2042	2087
2071	2071	2045	2086
2072	2071	2048	2087
2072	2072	2051	2086
2072	2072	2053	2085
2072	2071	2055	2084
2073	2072	2058	2084
2072	2071	2059	2083
2072	2070	2059	2082
2073	2071	2058	2083
2072	2071	2057	2083
2072	2068	2059	2082
2072	2068	2060	2081
2072	2068	2062	2081
2072	2069	2064	2082
2071	2068	2066	2081
2072	2069	2068	2081
2072	2069	2069	2080
2072	2070	2071	2080
2071	2069	2074	2079
2072	2069	2076	2078
2073	2070	2080	2079
2072	2069	2086	2079
2072	2067	2091	2080
2073	2068	2096	2081
2072	2068	2103	2079
2071	2067	2106	2079
2071	2068	2111	2079
2071	2069	2112	2079
2070	2068	2111	2079
2069	2068	2111	2081
2071	2069	2110	2080
2071	2069	2108	2079
2070	2067	2106	2079
2069	2067	2106	2081
2071	2068	2103	2080
2071	2067	2101	2079
2072	2068	2099	2080
2072	2066	2095	2079
2072	2065	2091	2079
2072	2066	2091	2081
2073	2065	2089	2080
2074	2066	2084	2079
2075	2066	2078	2079
2075	2066	2075	2080
2075	2066	2072	2079
2074	2067	2067	2079
2075	2068	2064	2080
2075	2067	2062	2080
2074	2065	2061	2079
2074	2067	2061	2080
2073	2068	2061	2080
2075	2069	2059	2081
2073	2070	2059	2081
2073	2070	2060	2078
2073	2069	2061	2079
2073	2071	2060	2082
2073	2073	2059	2080
2072	2074	2060	2079
2071	2074	2061	2080
2074	2074	2062	2081
2073	2074	2063	2078
2072	2076	2064	2078
2075	2076	2064	2080
2076	2075	2064	2079
2075	2077	2064	2079
2075	2078	2064	2079
2075	2077	2064	2077
2075	2078	2066	2078
2074	2079	2066	2080
2075	2079	2067	2079
2077	2082	2068	2079
2074	2085	2067	2079
2075	2088	2067	2079
2074	2092	2067	2079
2076	2098	2068	2080
2076	2101	2068	2080
2076	2103	2067	2079
2077	2104	2066	2080
2076	2103	2066	2079
2076	2100	2066	2077
2077	2100	2065	2077
2076	2098	2064	2078
2076	2094	2064	2078
2075	2091	2065	2079
2076	2090	2065	2078
2076	2089	2065	2078
2075	2083	2065	2079
2076	2078	2065	2079
2076	2077	2065	2079
2076	2073	2067	2079
2077	2071	2068	2080
2076	2068	2065	2080
2076	2066	2066	2079
2076	2067	2067	2080
2075	2065	2065	2081
2075	2062	2066	2079
2075	2059	2066	2080
2076	2058	2065	2081
2076	2057	2065	2081
2075	2059	2066	2080
2075	2060	2065	2080
2075	2060	2063	2079
2076	2062	2064	2077
2075	2063	2066	2078
2074	2062	2065	2080
2075	2064	2065	2079
2076	2066	2065	2078
2074	2064	2065	2078
2074	2065	2065	2079
2076	2064	2065	2080
2075	2063	2064	2081
2075	2062	2064	2081
2075	2062	2064	2080
2075	2062	2064	2082
2075	2063	2065	2082
2076	2066	2065	2079
2075	2066	2065	2080
2073	2066	2065	2081
2074	2067	2066	2079
2075	2068	2066	2078
2074	2068	2065	2078
2074	2067	2065	2078
2074	2067	2064	2078
2074	2067	2064	2079
2074	2067	2064	2079
2075	2069	2064	2078
2075	2069	2063	2078
2076	2069	2062	2079
2077	2071	2062	2079
2077	2069	2061	2078
2076	2071	2059	2079
2077	2071	2060	2078
2077	2069	2061	2077
2076	2070	2061	2078
2076	2069	2060	2079
2075	2069	2059	2078
2074	2069	2057	2077
2074	2070	2058	2076
2075	2070	2058	2077
2075	2069	2058	2078
2075	2068	2057	2079
2077	2068	2057	2079
2077	2068	2056	2079
2076	2067	2057	2077
2079	2068	2058	2078
2079	2069	2057	2079
2078	2070	2057	2079
2079	2070	2056	2078
2080	2072	2056	2078
2077	2071	2055	2078
2079	2071	2054	2077
2080	2071	2052	2076
2077	2070	2052	2077
2077	2069	2052	2077
2078	2070	2050	2076
2077	2070	2049	2078
2076	2070	2049	2077
2078	2070	2049	2077
2078	2071	2048	2078
2077	2070	2048	2077
2078	2071	2047	2078
2079	2073	2047	2077
2079	2071	2047	2077
2079	2071	2047	2078
2082	2072	2046	2079
2082	2071	2047	2078
2083	2071	2046	2077
2083	2070	2045	2078
2084	2069	2045	2078
2083	2069	2045	2077
2083	2071	2044	2077
2084	2071	2044	2077
2084	2070	2044	2077
2085	2071	2042	2077
2082	2071	2043	2076
2082	2070	2043	2076
2084	2071	2041	2078
2083	2071	2041	2078
2082	2070	2041	2076
2081	2071	2043	2077
2081	2073	2043	2077
2081	2071	2044	2075
2081	2071	2043	2077
2083	2072	2042	2076
2082	2073	2044	2074
2083	2072	2043	2076
2084	2073	2042	2076
2082	2072	2044	2075
2084	2072	2044	2075
2084	2072	2043	2076
2084	2073	2043	2076
2085	2073	2044	2075
2087	2072	2046	2075
2088	2072	2044	2075
2087	2071	2045	2075
2086	2071	2046	2076
2087	2071	2045	2075
2088	2072	2045	2075
2088	2072	2046	2076
2088	2070	2046	2075
2086	2070	2048	2076
2088	2071	2048	2076
2087	2071	2048	2076
2087	2070	2046	2075
2087	2072	2047	2075
2086	2072	2048	2077
2085	2070	2046	2077
2084	2071	2049	2076
2084	2072	2049	2076
2085	2072	2049	2075
2086	2072	2049	2075
2086	2073	2049	2075
2085	2072	2048	2074
2086	2072	2050	2075
2087	2074	2052	2075
2087	2073	2051	2074
2087	2070	2051	2075
2088	2070	2052	2075
2087	2070	2052	2076
2086	2068	2052	2076
2087	2068	2054	2076
2087	2070	2055	2075
2086	2069	2054	2076
2086	2070	2054	2076
2086	2071	2054	2076
2084	2070	2053	2077
2086	2071	2053	2078
2086	2072	2054	2077
2086	2071	2055	2077
2083	2071	2056	2078
2085	2072	2056	2077
2084	2072	2055	2078
2083	2071	2056	2078
2083	2072	2057	2077
2082	2072	2057	2076
2081	2071	2057	2075
2080	2072	2059	2076
2082	2072	2057	2076
2082	2070	2058	2075
2080	2070	2060	2076
2080	2070	2060	2075
2079	2069	2059	2075
2079	2069	2060	2076
2079	2070	2060	2076
2078	2070	2059	2076
2078	2069	2060	2075
2079	2070	2061	2075
2078	2070	2060	2075
2077	2070	2059	2076
2079	2071	2060	2076
2079	2071	2060	2076
2078	2070	2060	2076
2077	2070	2061	2076
2078	2070	2061	2076
2077	2072	2060	2077
2076	2072	2060	2076
2076	2071	2060	2076
2075	2071	2060	2075
2074	2071	2061	2075
2074	2072	2060	2077
2075	2073	2059	2078
2075	2071	2061	2077
2075	2073	2061	2077
2076	2074	2060	2077
2075	2074	2061	2077
2075	2074	2062	2078
2075	2075	2062	2078
2075	2074	2061	2077
2076	2074	2061	2075
2077	2074	2060	2076
2078	2075	2061	2075
2078	2078	2061	2074
2079	2078	2062	2074
2079	2077	2062	2074
2079	2077	2064	2074
2080	2080	2064	2075
2080	2080	2064	2075
2078	2080	2064	2073
2080	2081	2065	2076
2080	2081	2064	2077
2078	2082	2064	2075
2079	2081	2064	2075
2081	2082	2064	2076
2079	2081	2064	2075
2080	2083	2065	2075
2080	2084	2064	2075
2080	2084	2064	2072
2080	2084	2064	2072
2081	2085	2066	2073
2082	2084	2065	2073
2082	2085	2065	2072
2082	2085	2066	2072
2083	2086	2066	2074
2085	2086	2067	2072
2087	2085	2067	2072
2089	2085	2066	2072
2091	2086	2066	2072
2093	2088	2067	2073
2095	2089	2067	2072
2097	2089	2068	2071
2099	2088	2066	2071
2102	2087	2066	2073
2104	2086	2066	2072
2106	2087	2067	2072
2110	2087	2067	2072
2113	2086	2067	2072
2114	2085	2067	2073
2117	2085	2067	2073
2121	2084	2069	2074
2122	2086	2069	2073
2121	2086	2068	2073
2121	2084	2068	2074
2121	2083	2070	2073
2121	2082	2070	2073
2120	2081	2069	2075
2120	2081	2069	2074
2118	2082	2070	2073
2116	2084	2069	2073
2113	2083	2070	2074
2110	2082	2068	2074
2109	2081	2068	2074
2104	2081	2070	2074
2100	2082	2070	2073
2098	2082	2070	2074
2098	2084	2070	2075
2097	2083	2070	2074
2097	2082	2070	2074
2096	2082	2069	2076
2094	2083	2069	2074
2093	2080	2070	2073
2093	2080	2069	2075
2093	2080	2069	2075
2093	2080	2069	2074
2092	2080	2069	2073
2093	2080	2069	2073
2092	2080	2073	2073
2091	2079	2077	2073
2092	2078	2075	2074
2092	2078	2072	2074
2091	2078	2073	2075
2090	2078	2072	2075
2091	2077	2071	2075
2091	2076	2071	2076
2090	2076	2073	2077
2091	2076	2073	2077
2090	2076	2074	2077
2086	2077	2074	2076
2086	2076	2073	2077
2086	2075	2074	2075
2085	2076	2074	2075
2083	2075	2075	2075
2082	2074	2075	2076
2080	2073	2075	2076
2081	2074	2075	2075
2080	2072	2075	2075
2079	2071	2075	2075
2080	2072	2075	2077
2081	2072	2076	2076
2079	2071	2075	2076
2078	2071	2074	2076
2080	2072	2074	2076
2079	2071	2075	2074
2079	2071	2074	2076
2079	2072	2073	2076
2079	2072	2073	2076
2078	2071	2072	2075
2078	2072	2073	2076
2076	2074	2072	2074
2077	2073	2072	2075
2076	2072	2074	2075
2076	2073	2076	2076
2076	2072	2074	2075
2077	2072	2074	2075
2076	2072	2075	2076
2075	2072	2075	2076
2077	2072	2075	2075
2077	2072	2075	2075
2077	2073	2075	2075
2077	2072	2076	2075
2077	2072	2076	2075
2076	2073	2074	2075
2076	2072	2076	2076
2077	2073	2076	2076
2077	2072	2076	2076
2076	2073	2076	2075
2076	2072	2076	2076
2077	2073	2075	2077
2076	2073	2075	2076
2077	2072	2074	2075
2077	2072	2073	2075
2076	2072	2074	2075
2075	2071	2075	2074
2075	2071	2075	2075
2075	2071	2075	2077
2073	2070	2075	2078
2074	2071	2076	2082
2075	2072	2078	2081
2073	2072	2081	2082
2073	2073	2083	2084
2074	2073	2084	2084
2077	2073	2085	2086
2076	2073	2086	2086
2076	2074	2087	2087
2077	2074	2088	2089
2076	2073	2088	2088
2076	2073	2087	2090
2076	2075	2089	2090
2076	2074	2091	2089
2076	2073	2087	2091
2076	2073	2079	2092
2078	2074	2073	2091
2078	2073	2067	2088
2077	2074	2060	2089
2076	2074	2054	2090
2077	2074	2048	2089
2076	2073	2038	2088
2074	2074	2026	2088
2073	2073	2012	2086
2074	2073	2000	2087
2074	2074	1989	2087
2074	2073	1975	2084
2073	2072	1963	2083
2074	2074	1959	2082
2074	2073	1967	2081
2074	2072	1981	2080
2072	2073	1991	2080
2074	2073	1998	2079
2074	2072	2010	2078
2074	2074	2018	2078
2073	2073	2025	2078
2073	2072	2026	2077
2075	2073	2025	2077
2074	2073	2024	2076
2072	2072	2025	2076
2072	2072	2024	2075
2072	2073	2023	2076
2072	2072	2023	2075
2070	2071	2023	2074
2069	2071	2023	2074
2069	2071	2025	2075
2070	2070	2025	2075
2071	2072	2024	2075
2069	2072	2026	2073
2070	2072	2027	2073
2070	2072	2028	2074
2069	2072	2033	2075
2068	2073	2039	2074
2068	2074	2042	2074
2069	2074	2045	2074
2070	2074	2049	2073
2070	2075	2054	2073
2070	2076	2056	2073
2071	2076	2060	2072
2070	2076	2063	2072
2069	2079	2067	2072
2070	2079	2070	2071
2071	2078	2073	2071
2069	2081	2077	2071
2070	2082	2079	2071
2070	2084	2079	2071
2069	2087	2079	2071
2069	2090	2079	2069
2069	2092	2081	2068
2069	2094	2081	2069
2068	2097	2082	2068
2069	2100	2082	2068
2068	2102	2081	2068
2068	2105	2081	2067
2069	2106	2082	2067
2068	2108	2081	2068
2068	2108	2082	2068
2069	2109	2083	2067
2069	2113	2081	2065
2068	2117	2081	2066
2069	2116	2080	2066
2069	2119	2080	2065
2067	2123	2079	2065
2067	2125	2079	2065
2068	2125	2078	2065
2067	2127	2079	2065
2065	2131	2079	2065
2066	2133	2078	2065
2065	2136	2078	2064
2064	2140	2078	2064
2063	2143	2078	2062
2065	2145	2080	2060
2064	2147	2080	2061
2064	2152	2081	2061
2063	2159	2080	2064
2062	2164	2081	2065
2061	2167	2081	2067
2061	2172	2081	2070
2060	2179	2079	2072
2061	2182	2080	2073
2060	2183	2082	2075
2061	2180	2080	2075
2060	2176	2080	2075
2060	2175	2081	2076
2058	2173	2081	2076
2057	2170	2080	2078
2057	2167	2080	2079
2057	2164	2081	2081
2057	2158	2080	2082
2057	2149	2081	2085
2059	2144	2083	2091
2058	2139	2082	2093
2058	2132	2081	2097
2057	2126	2083	2101
2059	2120	2083	2101
2060	2115	2081	2103
2060	2108	2082	2101
2060	2102	2084	2099
2061	2096	2083	2096
2060	2091	2083	2096
2062	2086	2083	2094
2063	2080	2084	2091
2064	2077	2083	2092
2065	2079	2083	2092
2066	2079	2082	2088
2065	2077	2082	2087
2064	2075	2082	2088
2065	2075	2083	2085
2065	2075	2082	2084
2064	2074	2083	2085
2064	2074	2082	2084
2064	2072	2081	2081
2065	2073	2081	2081
2068	2072	2083	2080
2067	2071	2083	2080
2068	2071	2082	2079
2069	2070	2082	2079
2069	2070	2083	2078
2068	2068	2083	2077
2069	2068	2084	2075
2069	2069	2084	2073
2069	2069	2084	2073
2068	2068	2084	2072
2070	2068	2085	2072
2070	2068	2084	2071
2071	2067	2083	2070
2072	2067	2084	2069
2071	2067	2085	2069
2071	2068	2085	2070
2072	2068	2085	2069
2073	2068	2084	2069
2073	2066	2085	2068
2074	2067	2085	2069
2074	2066	2085	2070
2073	2066	2086	2070
2074	2064	2087	2069
2075	2065	2086	2068
2076	2065	2087	2068
2076	2064	2087	2067
2076	2065	2088	2067
2076	2065	2089	2068
2077	2064	2088	2067
2075	2064	2088	2066
2076	2064	2089	2066
2076	2064	2088	2063
2074	2063	2087	2063
2074	2063	2087	2065
2076	2064	2087	2065
2076	2064	2085	2063
2075	2063	2086	2062
2075	2064	2087	2063
2076	2064	2086	2064
2076	2063	2085	2064
2076	2062	2085	2064
2077	2063	2085	2063
2078	2064	2085	2063
2077	2062	2086	2063
2076	2063	2085	2063
2076	2062	2083	2063
2076	2062	2085	2062
2076	2060	2085	2061
2076	2061	2085	2062
2076	2062	2087	2062
2075	2061	2086	2063
2076	2060	2086	2063
2075	2060	2086	2063
2072	2060	2086	2063
2073	2058	2086	2062
2074	2060	2087	2062
2075	2061	2086	2061
2075	2062	2085	2060
2075	2061	2084	2061
2075	2061	2083	2061
2076	2061	2083	2060
2076	2061	2084	2059
2075	2059	2083	2060
2075	2060	2083	2060
2076	2061	2082	2060
2075	2060	2082	2061
2076	2059	2082	2060
2078	2059	2082	2060
2077	2060	2082	2061
2077	2061	2081	2061
2078	2062	2080	2060
2077	2062	2081	2060
2076	2061	2081	2060
2077	2061	2081	2062
2075	2060	2081	2064
2075	2061	2080	2061
2075	2060	2079	2061
2075	2058	2078	2061
2074	2059	2079	2061
2075	2059	2079	2060
2076	2058	2076	2061
2074	2057	2077	2061
2075	2058	2077	2061
2074	2057	2076	2061
2074	2057	2077	2061
2075	2058	2076	2061
2076	2057	2074	2061
2076	2057	2076	2063
2076	2056	2076	2062
2076	2056	2075	2061
2077	2056	2075	2060
2077	2057	2074	2061
2077	2057	2074	2061
2076	2056	2074	2060
2076	2056	2074	2061
2076	2055	2072	2060
2075	2056	2072	2060
2074	2057	2072	2061
2074	2055	2070	2061
2074	2054	2070	2061
2075	2055	2071	2062
2076	2056	2070	2062
2077	2055	2069	2060
2077	2054	2070	2061
2077	2055	2069	2063
2076	2055	2069	2062
2076	2055	2068	2062
2078	2054	2067	2063
2078	2053	2068	2062
2077	2054	2068	2062
2078	2054	2067	2062
2079	2054	2067	2062
2077	2053	2067	2062
2077	2053	2066	2062
2077	2053	2066	2061
2077	2054	2065	2063
2076	2053	2062	2064
2076	2053	2063	2061
2076	2054	2063	2062
2076	2055	2061	2063
2074	2054	2059	2062
2074	2052	2058	2063
2075	2053	2057	2065
2075	2055	2056	2063
2075	2055	2055	2062
2075	2053	2054	2062
2073	2052	2053	2062
2074	2053	2050	2063
2075	2051	2049	2063
2074	2051	2048	2062
2074	2050	2049	2063
2075	2049	2047	2063
2075	2050	2047	2062
2074	2049	2049	2062
2075	2048	2050	2064
2075	2048	2051	2063
2075	2049	2052	2064
2075	2047	2052	2064
2075	2046	2056	2065
2075	2047	2057	2065
2077	2045	2058	2065
2078	2044	2057	2066
2079	2045	2057	2065
2081	2044	2057	2064
2083	2042	2057	2066
2084	2044	2057	2067
2085	2044	2057	2069
2088	2042	2053	2069
2089	2044	2047	2068
2089	2044	2040	2070
2089	2042	2036	2070
2090	2041	2031	2070
2090	2043	2024	2070
2091	2043	2019	2070
2092	2043	2015	2070
2092	2043	2013	2069
2091	2043	2012	2070
2089	2043	2010	2069
2085	2045	2007	2070
2083	2045	2006	2071
2079	2045	2005	2069
2076	2045	2003	2070
2074	2045	2004	2071
2071	2045	2007	2071
2065	2045	2009	2072
2059	2045	2009	2072
2054	2044	2010	2072
2050	2044	2013	2072
2044	2045	2015	2072
2040	2045	2018	2072
2033	2045	2024	2074
2026	2046	2027	2072
2019	2047	2030	2072
2011	2047	2034	2071
2003	2047	2038	2071
1995	2048	2040	2072
1986	2047	2044	2073
1981	2048	2047	2074
1980	2049	2049	2074
1984	2050	2052	2075
1986	2050	2056	2075
1986	2050	2058	2075
1988	2049	2060	2077
1990	2050	2063	2076
1991	2051	2065	2076
1993	2052	2067	2076
1999	2053	2071	2075
2003	2054	2072	2075
2005	2053	2074	2073
2008	2053	2076	2074
2012	2053	2076	2073
2014	2053	2077	2075
2019	2054	2077	2075
2026	2054	2079	2075
2032	2053	2080	2076
2037	2056	2082	2077
2044	2058	2083	2077
2049	2057	2081	2076
2055	2056	2081	2076
2060	2057	2082	2077
2062	2057	2081	2077
2061	2057	2082	2077
2063	2057	2082	2076
2065	2056	2083	2076
2066	2056	2082	2076
2069	2058	2082	2076
2071	2059	2085	2076
2071	2058	2083	2076
2072	2059	2083	2075
2073	2058	2082	2075
2074	2059	2082	2075
2075	2059	2083	2074
2076	2060	2083	2073
2078	2060	2082	2073
2077	2061	2081	2073
2078	2060	2082	2073
2078	2061	2082	2073
2078	2062	2082	2075
2079	2062	2082	2075
2078	2063	2083	2076
2077	2063	2081	2074
2078	2064	2081	2075
2079	2063	2083	2075
2078	2063	2081	2076
2079	2063	2081	2076
2081	2065	2083	2076
2080	2065	2081	2075
2080	2064	2081	2077
2081	2065	2083	2075
2081	2064	2083	2075
2080	2064	2083	2076
2081	2063	2084	2075
2081	2063	2083	2074
2081	2064	2082	2075
2081	2064	2084	2075
2080	2065	2084	2074
2081	2066	2082	2074
2080	2066	2083	2076
2081	2067	2084	2075
2083	2067	2084	2074
2082	2066	2083	2075
2083	2067	2084	2075
2084	2066	2085	2075
2083	2067	2085	2073
2083	2067	2086	2074
2082	2067	2086	2077
2082	2067	2086	2075
2082	2067	2087	2077
2082	2067	2086	2077
2083	2068	2087	2075
2083	2068	2086	2075
2083	2067	2087	2076
2084	2067	2087	2077
2084	2068	2087	2076
2084	2069	2088	2075
2084	2072	2087	2075
2084	2072	2088	2075
2085	2071	2088	2075
2084	2073	2088	2074
2085	2074	2088	2075
2086	2073	2089	2075
2085	2072	2091	2074
2084	2073	2090	2075
2086	2073	2089	2076
2087	2072	2089	2075
2088	2073	2089	2075
2088	2073	2090	2076
2087	2074	2091	2077
2087	2073	2091	2076
2088	2074	2090	2075
2088	2074	2090	2075
2087	2075	2090	2076
2087	2074	2089	2075
2087	2075	2089	2075
2087	2073	2090	2075
2087	2074	2091	2074
2088	2075	2090	2073
2088	2075	2089	2072
2089	2076	2089	2073
2088	2076	2090	2074
2086	2075	2089	2074
2086	2074	2090	2075
2087	2076	2090	2075
2087	2076	2090	2075
2087	2075	2091	2076
2087	2075	2092	2076
2086	2076	2091	2075
2087	2075	2090	2076
2089	2076	2090	2076
2091	2076	2091	2076
2091	2074	2091	2076
2091	2073	2091	2076
2090	2074	2091	2077
2092	2076	2091	2077
2091	2075	2091	2077
2091	2074	2091	2077
2091	2078	2091	2077
2089	2077	2090	2076
2089	2076	2089	2076
2089	2077	2089	2076
2090	2076	2089	2075
2089	2075	2088	2075
2089	2077	2088	2076
2090	2076	2087	2077
2091	2075	2087	2076
2092	2076	2087	2075
2091	2076	2087	2075
2090	2076	2088	2075
2092	2078	2088	2075
2094	2078	2086	2075
2094	2076	2085	2077
2094	2078	2085	2075
2096	2078	2087	2075
2098	2077	2085	2077
2097	2076	2086	2076
2097	2077	2087	2076
2098	2076	2087	2076
2098	2077	2085	2076
2099	2076	2086	2076
2100	2076	2087	2075
2102	2077	2085	2077
2101	2078	2085	2076
2101	2076	2084	2075
2100	2077	2083	2075
2101	2078	2083	2076
2103	2077	2083	2076
2102	2076	2082	2076
2101	2076	2082	2077
2102	2076	2082	2077
2104	2075	2082	2080
2103	2075	2083	2082
2105	2073	2083	2083
2104	2073	2082	2085
2104	2074	2082	2088
2107	2075	2081	2089
2109	2074	2079	2090
2108	2074	2080	2090
2107	2074	2081	2091
2109	2076	2080	2093
2107	2077	2079	2093
2107	2076	2079	2094
2109	2076	2079	2096
2108	2077	2079	2097
2107	2076	2079	2100
2108	2075	2079	2104
2109	2074	2077	2106
2110	2075	2077	2107
2108	2075	2077	2110
2109	2074	2078	2114
2110	2076	2078	2115
2110	2075	2079	2117
2109	2075	2077	2118
2109	2076	2078	2118
2108	2075	2078	2120
2109	2075	2078	2123
2109	2076	2079	2123
2108	2074	2080	2124
2105	2075	2080	2125
2107	2074	2078	2126
2107	2074	2080	2125
2105	2075	2080	2128
2106	2076	2079	2129
2106	2075	2079	2129
2106	2075	2080	2130
2106	2076	2077	2131
2104	2076	2078	2131
2104	2076	2080	2132
2103	2076	2078	2135
2102	2076	2078	2136
2101	2075	2078	2137
2101	2075	2078	2138
2099	2075	2078	2137
2099	2076	2079	2136
2099	2076	2079	2136
2098	2075	2078	2136
2097	2075	2079	2136
2098	2075	2079	2136
2098	2076	2078	2133
2097	2076	2079	2131
2095	2075	2079	2130
2096	2074	2079	2128
2094	2075	2078	2127
2094	2076	2079	2124
2093	2076	2078	2120
2092	2076	2078	2120
2092	2075	2079	2120
2092	2075	2079	2119
2091	2075	2078	2117
2089	2075	2077	2118
2090	2075	2075	2116
2089	2075	2076	2113
2089	2075	2076	2113
2086	2076	2076	2114
2085	2075	2077	2112
2086	2076	2077	2112
2085	2075	2078	2112
2083	2075	2079	2112
2083	2075	2078	2110
2083	2075	2080	2110
2082	2074	2080	2109
2081	2075	2078	2109
2082	2074	2078	2109
2083	2076	2079	2107
2081	2076	2080	2104
2081	2076	2079	2105
2082	2076	2078	2103
2081	2077	2079	2101
2080	2077	2079	2099
2079	2077	2077	2095
2079	2076	2075	2092
2079	2075	2076	2089
2079	2074	2076	2087
2078	2075	2075	2083
2078	2076	2075	2081
2079	2077	2077	2079
2079	2076	2077	2076
2078	2077	2077	2074
2077	2075	2077	2072
2078	2075	2076	2068
2076	2076	2077	2067
2076	2076	2078	2067
2077	2075	2077	2066
2077	2075	2075	2065
2077	2075	2076	2064
2077	2075	2076	2064
2077	2075	2076	2064
2077	2076	2076	2063
2077	2076	2074	2064
2077	2075	2073	2064
2078	2075	2074	2064
2077	2076	2074	2064
2077	2075	2074	2063
2077	2075	2074	2062
2075	2075	2074	2063
2075	2075	2075	2064
2075	2073	2075	2064
2074	2075	2074	2063
2075	2075	2076	2062
2074	2074	2076	2061
2074	2074	2076	2061
2073	2075	2076	2060
2074	2074	2077	2059
2074	2071	2077	2060
2074	2072	2077	2059
2075	2070	2077	2059
2075	2071	2079	2061
2075	2069	2077	2060
2075	2069	2076	2058
2074	2069	2076	2058
2074	2068	2077	2058
2074	2070	2076	2058
2073	2071	2076	2058
2073	2071	2075	2058
2073	2071	2075	2057
2072	2072	2073	2056
2074	2073	2074	2056
2074	2073	2075	2055
2075	2073	2075	2056
2074	2072	2074	2056
2074	2072	2074	2056
2075	2073	2075	2054
2074	2073	2077	2053
2074	2071	2077	2053
2074	2071	2078	2053
2073	2072	2079	2052
2074	2072	2077	2052
2074	2070	2076	2052
2074	2070	2078	2052
2074	2070	2077	2050
2073	2068	2077	2051
2073	2068	2079	2052
2074	2070	2078	2050
2074	2069	2075	2049
2072	2072	2077	2048
2072	2073	2077	2047
2073	2073	2074	2048
2073	2073	2074	2048
2073	2075	2075	2047
2073	2074	2074	2046
2073	2073	2076	2046
2073	2072	2076	2047
2074	2074	2074	2046
2074	2073	2074	2045
2075	2073	2074	2045
2075	2073	2074	2044
2076	2073	2075	2043
2075	2072	2076	2043
2076	2072	2075	2044
2076	2071	2075	2043
2075	2071	2076	2043
2075	2070	2076	2042
2075	2069	2075	2041
2075	2070	2076	2041
2074	2070	2075	2042
2073	2070	2076	2039
2073	2070	2076	2041
2073	2070	2076	2041
2073	2071	2075	2039
2072	2070	2074	2039
2072	2069	2076	2040
2071	2070	2076	2040
2071	2069	2074	2040
2073	2069	2074	2040
2073	2070	2075	2041
2072	2070	2075	2040
2073	2069	2077	2040
2073	2070	2077	2041
2074	2071	2075	2038
2072	2071	2075	2039
2073	2070	2076	2040
2074	2070	2076	2040
2073	2071	2075	2039
2073	2070	2076	2040
2074	2070	2076	2040
2073	2070	2076	2040
2072	2068	2075	2040
2073	2070	2075	2039
2073	2069	2075	2038
2073	2069	2076	2040
2072	2069	2075	2040
2073	2070	2077	2039
2072	2070	2077	2039
2071	2069	2075	2041
2073	2070	2074	2041
2072	2070	2076	2041
2072	2070	2076	2042
2072	2069	2075	2042
2072	2068	2075	2042
2072	2070	2077	2042
2072	2071	2076	2041
2072	2069	2076	2041
2072	2069	2077	2043
2072	2069	2075	2042
2073	2070	2074	2041
2072	2071	2075	2042
2070	2071	2075	2043
2071	2070	2074	2042
2072	2070	2076	2043
2073	2071	2074	2044
2073	2071	2073	2043
2071	2070	2075	2044
2070	2071	2073	2046
2069	2071	2072	2045
2069	2069	2072	2046
2069	2070	2074	2049
2069	2069	2075	2048
2070	2070	2076	2047
2071	2070	2079	2049
2071	2068	2079	2051
2071	2068	2079	2049
2072	2069	2080	2051
2072	2070	2079	2052
2073	2069	2078	2050
2072	2069	2077	2052
2073	2070	2078	2053
2071	2071	2078	2052
2071	2070	2078	2052
2072	2070	2077	2053
2072	2071	2077	2052
2072	2072	2077	2053
2072	2073	2078	2054
2071	2072	2078	2052
2072	2071	2079	2052
2072	2071	2078	2055
2073	2071	2079	2054
2072	2070	2080	2054
2072	2069	2080	2056
2074	2070	2081	2057
2074	2070	2081	2056
2074	2070	2080	2057
2073	2070	2080	2057
2073	2070	2079	2057
2073	2070	2080	2060
2073	2070	2079	2061
2073	2070	2079	2061
2072	2070	2081	2061
2072	2070	2079	2062
2072	2071	2080	2062
2072	2070	2079	2064
2072	2070	2079	2065
2071	2069	2078	2064
2072	2071	2078	2065
2071	2072	2076	2067
2072	2070	2076	2067
2072	2069	2077	2068
2071	2070	2077	2070
2071	2071	2075	2070
2071	2070	2075	2069
2072	2069	2076	2071
2073	2070	2075	2071
2073	2070	2075	2070
2072	2069	2075	2071
2073	2070	2076	2073
2074	2070	2075	2071
2074	2070	2075	2071
2074	2069	2075	2071
2074	2069	2074	2072
2073	2069	2076	2073
2074	2068	2076	2072
2076	2069	2076	2072
2075	2069	2077	2071
2073	2069	2077	2072
2073	2069	2077	2072
2073	2068	2076	2071
2074	2069	2076	2071
2074	2069	2075	2071
2072	2069	2075	2072
2073	2068	2077	2072
2073	2068	2077	2070
2074	2069	2074	2072
2073	2069	2076	2072
2074	2070	2077	2072
2074	2069	2076	2072
2074	2068	2076	2073
2076	2068	2079	2073
2074	2068	2078	2073
2075	2068	2077	2072
2074	2068	2080	2073
2075	2067	2080	2073
2075	2067	2079	2074
2075	2067	2080	2073
2074	2069	2083	2075
2074	2068	2085	2073
2074	2067	2090	2073
2076	2068	2093	2073
2075	2068	2096	2073
2074	2068	2099	2073
2075	2069	2103	2074
2074	2068	2106	2073
2074	2068	2107	2074
2074	2068	2106	2075
2074	2068	2106	2075
2075	2068	2109	2075
2075	2068	2110	2075
2074	2068	2110	2075
2075	2068	2110	2075
2074	2068	2107	2076
2075	2068	2097	2075
2075	2068	2091	2074
2074	2068	2085	2074
2073	2068	2078	2073
2073	2069	2072	2071
2074	2069	2065	2071
2074	2069	2057	2071
2075	2070	2045	2071
2076	2069	2033	2071
2076	2070	2023	2072
2075	2071	2012	2073
2073	2071	2001	2074
2075	2070	1990	2074
2076	2071	1986	2073
2076	2071	1988	2074
2075	2070	1995	2075
2076	2070	1999	2076
2076	2070	2001	2075
2076	2069	2006	2075
2076	2070	2010	2075
2076	2071	2009	2076
2077	2070	2012	2074
2076	2069	2014	2075
2076	2069	2012	2075
2076	2070	2012	2074
2077	2070	2013	2075
2077	2071	2013	2076
2076	2071	2013	2076
2076	2070	2014	2073
2076	2071	2016	2072
2077	2070	2017	2070
2076	2072	2019	2069
2076	2072	2021	2067
2076	2072	2021	2065
2075	2072	2023	2063
2076	2073	2025	2061
2077	2071	2026	2057
2077	2071	2030	2056
2077	2073	2032	2054
2076	2072	2032	2051
2077	2070	2035	2048
2078	2071	2038	2045
2077	2071	2041	2043
2076	2070	2044	2041
2076	2070	2046	2039
2077	2071	2050	2036
2076	2070	2054	2035
2076	2069	2057	2033
2076	2069	2059	2031
2075	2069	2060	2029
2074	2069	2062	2026
2075	2069	2064	2022
2076	2069	2065	2018
2076	2070	2067	2015
2076	2071	2069	2012
2076	2071	2070	2010
2077	2070	2071	2008
2078	2072	2072	2007
2078	2072	2072	2007
2078	2071	2073	2008
2079	2072	2075	2009
2079	2071	2075	2009
2079	2071	2075	2010
2078	2071	2076	2011
2077	2071	2076	2010
2078	2070	2076	2011
2078	2069	2076	2011
2077	2069	2076	2013
2077	2068	2076	2013
2077	2068	2076	2013
2075	2068	2075	2014
2077	2067	2077	2013
2077	2067	2077	2014
2078	2068	2076	2013
2080	2067	2077	2013
2080	2067	2078	2013
2080	2068	2078	2012
2081	2070	2079	2011
2082	2067	2079	2013
2082	2068	2078	2014
2082	2067	2078	2014
2083	2068	2078	2016
2085	2067	2078	2018
2085	2067	2078	2019
2085	2067	2080	2019
2084	2067	2079	2020
2084	2068	2079	2020
2085	2069	2078	2019
2085	2069	2077	2019
2085	2069	2077	2019
2084	2068	2076	2018
2083	2068	2075	2020
2081	2069	2076	2020
2081	2068	2077	2020
2082	2068	2076	2020
2082	2069	2078	2021
2084	2070	2079	2021
2085	2069	2079	2021
2084	2069	2078	2021
2084	2070	2079	2022
2085	2071	2080	2025
2086	2072	2080	2029
2086	2071	2080	2033
2087	2071	2078	2037
2087	2072	2078	2041
2087	2071	2079	2045
2086	2072	2079	2047
2086	2071	2080	2049
2086	2071	2082	2050
2088	2070	2081	2051
2088	2069	2080	2053
2088	2071	2081	2053
2088	2070	2080	2053
2088	2069	2080	2056
2088	2070	2081	2058
2089	2070	2081	2061
2088	2071	2081	2063
2087	2071	2082	2066
2089	2071	2082	2068
2089	2072	2083	2070
2088	2073	2084	2074
2087	2074	2084	2075
2087	2073	2083	2076
2088	2072	2083	2077
2087	2072	2083	2077
2088	2074	2082	2078
2088	2074	2083	2080
2088	2073	2084	2082
2088	2073	2084	2083
2089	2073	2084	2083
2089	2071	2085	2082
2088	2071	2084	2081
2089	2071	2086	2080
2088	2071	2087	2081
2088	2070	2086	2079
2089	2070	2086	2078
2089	2071	2087	2079
2087	2071	2086	2081
2086	2070	2084	2081
2087	2070	2084	2082
2088	2072	2084	2084
2086	2073	2084	2083
2086	2073	2084	2082
2086	2073	2084	2083
2086	2072	2082	2083
2085	2072	2083	2083
2084	2071	2083	2084
2083	2072	2084	2084
2084	2071	2085	2083
2085	2071	2086	2084
2083	2072	2086	2083
2083	2071	2085	2083
2083	2070	2083	2083
2083	2070	2083	2084
2082	2069	2085	2086
2081	2068	2086	2085
2081	2068	2084	2086
2080	2068	2082	2086
2080	2067	2084	2087
2080	2069	2084	2088
2078	2069	2083	2088
2078	2070	2083	2090
2080	2070	2084	2091
2078	2071	2084	2093
2076	2071	2083	2094
2077	2071	2082	2095
2078	2071	2081	2097
2075	2072	2081	2098
2074	2071	2080	2100
2076	2071	2079	2102
2075	2071	2080	2103
2074	2072	2080	2104
2075	2072	2080	2103
2075	2069	2080	2103
2074	2068	2080	2103
2074	2071	2079	2103
2074	2069	2077	2102
2073	2068	2077	2102
2074	2069	2078	2103
2074	2069	2079	2103
2073	2068	2079	2103
2074	2068	2078	2107
2075	2070	2077	2107
2074	2071	2076	2108
2076	2069	2074	2109
2077	2069	2074	2109
2076	2072	2076	2110
2077	2070	2075	2113
2077	2071	2075	2111
2076	2070	2076	2110
2078	2071	2077	2112
2079	2071	2077	2112
2078	2072	2076	2112
2077	2071	2078	2114
2079	2069	2078	2113
2080	2069	2077	2112
2079	2069	2077	2113
2080	2069	2077	2112
2080	2069	2075	2111
2081	2068	2075	2112
2080	2068	2075	2114
2081	2069	2073	2113
2080	2070	2073	2112
2081	2070	2074	2112
2083	2070	2073	2112
2085	2070	2071	2112
2086	2070	2073	2111
2088	2070	2073	2111
2090	2071	2071	2112
2091	2072	2071	2112
2092	2072	2071	2112
2096	2073	2070	2113
2098	2073	2070	2113
2100	2075	2069	2112
2103	2075	2069	2113
2107	2076	2069	2114
2108	2076	2069	2113
2109	2075	2069	2112
2114	2076	2069	2111
2116	2078	2068	2112
2120	2078	2068	2111
2121	2077	2068	2111
2123	2078	2067	2110
2124	2079	2067	2110
2123	2077	2066	2111
2121	2078	2066	2110
2121	2079	2065	2109
2121	2078	2066	2110
2120	2078	2066	2109
2119	2078	2063	2109
2118	2077	2063	2108
2114	2078	2063	2108
2110	2079	2061	2107
2109	2079	2063	2106
2106	2078	2062	2108
2102	2078	2062	2108
2099	2078	2061	2108
2098	2078	2060	2107
2099	2078	2058	2106
2099	2077	2059	2104
2098	2076	2058	2105
2095	2074	2056	2104
2095	2074	2055	2104
2095	2074	2053	2102
2094	2075	2052	2101
2093	2075	2052	2100
2093	2074	2051	2100
2093	2074	2049	2099
2091	2074	2048	2099
2091	2074	2047	2098
2091	2075	2045	2096
2090	2075	2042	2096
2090	2074	2040	2096
2091	2074	2038	2095
2089	2075	2035	2094
2089	2074	2031	2096
2090	2074	2030	2096
2089	2074	2028	2094
2087	2074	2025	2093
2085	2073	2025	2095
2085	2074	2025	2093
2083	2074	2025	2091
2083	2074	2024	2092
2083	2074	2023	2092
2081	2075	2022	2091
2080	2073	2023	2091
2081	2074	2025	2089
2080	2074	2027	2089
2080	2075	2029	2089
2080	2074	2033	2088
2080	2074	2034	2088
2078	2074	2036	2087
2078	2075	2039	2088
2079	2076	2042	2088
2077	2076	2045	2087
2078	2075	2047	2086
2077	2075	2049	2087
2076	2074	2052	2087
2075	2074	2055	2087
2077	2074	2057	2087
2076	2074	2058	2086
2075	2073	2057	2085
2076	2072	2056	2083
2076	2071	2057	2083
2074	2070	2058	2084
2076	2070	2058	2084
2076	2071	2059	2085
2076	2070	2061	2083
2076	2071	2063	2083
2076	2069	2065	2083
2075	2067	2067	2082
2077	2068	2068	2080
2078	2069	2072	2081
2077	2069	2076	2081
2076	2069	2078	2081
2077	2070	2083	2083
2077	2070	2088	2082
2076	2070	2092	2081
2076	2071	2097	2080
2077	2071	2103	2080
2076	2070	2107	2081
2077	2070	2107	2082
2076	2069	2108	2081
2076	2070	2106	2082
2077	2070	2105	2081
2076	2069	2105	2081
2076	2069	2105	2082
2075	2070	2103	2081
2075	2069	2101	2080
2077	2070	2099	2081
2076	2070	2097	2080
2076	2070	2095	2079
2077	2070	2092	2080
2076	2070	2091	2080
2076	2070	2087	2080
2077	2070	2084	2080
2077	2070	2080	2080
2077	2069	2076	2079
2078	2070	2073	2080
2076	2069	2070	2080
2077	2070	2066	2080
2078	2070	2062	2080
2077	2069	2058	2081
2076	2069	2057	2080
2076	2068	2060	2080
2077	2069	2060	2080
2075	2068	2061	2080
2075	2068	2060	2078
2076	2069	2060	2079
2075	2068	2060	2078
2074	2069	2062	2077
2074	2071	2063	2077
2074	2072	2063	2077
2075	2073	2062	2077
2075	2074	2065	2076
2074	2073	2065	2076
2075	2074	2066	2076
2076	2076	2067	2078
2075	2079	2066	2078
2076	2083	2067	2078
2076	2085	2067	2078
2075	2088	2067	2078
2074	2090	2068	2077
2075	2092	2068	2077
2074	2095	2067	2077
2073	2095	2067	2075
2074	2094	2069	2074
2073	2095	2070	2075
2070	2094	2069	2077
2070	2093	2069	2077
2069	2093	2070	2078
2070	2093	2069	2078
2069	2091	2068	2078
2070	2087	2068	2078
2071	2084	2067	2077
2068	2082	2066	2079
2069	2078	2066	2079
2071	2075	2065	2078
2070	2073	2065	2075
2070	2071	2067	2076
2069	2070	2068	2078
2069	2067	2068	2076
2069	2064	2068	2076
2069	2061	2066	2077
2069	2058	2067	2079
2069	2058	2069	2077
2069	2057	2068	2077
2069	2058	2065	2078
2069	2058	2067	2077
2069	2058	2066	2076
2069	2059	2067	2076
2069	2060	2068	2076
2070	2060	2066	2075
2067	2060	2065	2078
2067	2060	2066	2077
2068	2060	2066	2077
2068	2062	2065	2078
2067	2064	2066	2079
2067	2065	2067	2078
2067	2066	2066	2080
2068	2066	2066	2079
2067	2066	2066	2079
2068	2067	2066	2078
2070	2068	2064	2078
2069	2067	2066	2078
2068	2068	2066	2078
2068	2069	2065	2078
2070	2068	2064	2077
2068	2068	2065	2077
2068	2069	2066	2078
2068	2068	2066	2077
2068	2067	2065	2078
2067	2066	2065	2079
2067	2066	2065	2078
2066	2065	2066	2078
2065	2066	2065	2078
2064	2065	2064	2078
2063	2064	2063	2078
2064	2064	2064	2078
2065	2064	2063	2076
2065	2064	2063	2076
2064	2064	2062	2077
2063	2064	2061	2077
2063	2065	2061	2076
2062	2066	2060	2078
2061	2067	2060	2078
2061	2068	2060	2078
2060	2069	2060	2079
2061	2067	2060	2080
2061	2066	2059	2078
2061	2069	2059	2079
2059	2069	2059	2079
2059	2067	2059	2078
2058	2067	2058	2077
2058	2067	2057	2078
2058	2068	2057	2078
2058	2068	2057	2076
2059	2069	2057	2077
2060	2068	2056	2077
2059	2068	2056	2078
2060	2069	2058	2077
2061	2069	2058	2078
2061	2069	2056	2078
2062	2071	2056	2077
2064	2072	2056	2077
2063	2072	2054	2077
2062	2070	2054	2077
2063	2071	2053	2079
2063	2071	2053	2077
2063	2070	2051	2077
2064	2071	2052	2077
2064	2071	2051	2077
2065	2070	2050	2076
2066	2072	2050	2077
2065	2072	2050	2077
2063	2070	2049	2075
2063	2072	2050	2076
2064	2071	2049	2078
2063	2070	2049	2078
2064	2070	2048	2076
2065	2070	2047	2077
2064	2069	2047	2076
2066	2069	2049	2077
2067	2069	2049	2077
2067	2069	2045	2076
2067	2069	2046	2077
2066	2070	2045	2078
2067	2069	2045	2076
2067	2071	2045	2074
2069	2072	2045	2075
2068	2072	2044	2075
2068	2073	2043	2074
2069	2073	2042	2077
2069	2073	2042	2076
2069	2071	2043	2075
2071	2071	2044	2076
2071	2072	2044	2076
2069	2071	2043	2077
2071	2071	2043	2078
2070	2070	2043	2079
2069	2071	2044	2077
2069	2072	2044	2078
2072	2072	2042	2079
2071	2072	2042	2079
2071	2073	2042	2078
2073	2074	2042	2078
2074	2073	2043	2077
2073	2073	2044	2077
2074	2073	2043	2077
2073	2072	2043	2077
2073	2071	2043	2077
2075	2073	2044	2076
2074	2074	2045	2076
2073	2074	2044	2077
2075	2073	2045	2077
2076	2072	2044	2076
2076	2072	2043	2077
2077	2072	2044	2077
2077	2073	2045	2076
2078	2072	2047	2076
2078	2072	2046	2077
2079	2071	2046	2077
2079	2072	2046	2077
2079	2073	2047	2076
2078	2072	2047	2076
2077	2072	2049	2076
2077	2073	2050	2076
2077	2073	2049	2076
2076	2072	2049	2076
2078	2072	2050	2077
2077	2074	2052	2076
2075	2075	2051	2076
2077	2074	2052	2076
2077	2073	2053	2076
2074	2074	2052	2076
2076	2074	2052	2076
2077	2073	2054	2077
2076	2072	2055	2075
2077	2073	2053	2076
2077	2073	2053	2077
2077	2073	2053	2076
2077	2073	2053	2074
2078	2073	2053	2075
2077	2074	2054	2076
2077	2073	2055	2076
2078	2074	2055	2076
2078	2074	2056	2075
2078	2074	2055	2076
2079	2075	2056	2076
2078	2074	2056	2075
2079	2073	2057	2075
2079	2077	2058	2077
2078	2078	2058	2076
2077	2077	2057	2076
2077	2077	2057	2075
2076	2077	2058	2075
2077	2078	2059	2076
2076	2077	2059	2076
2075	2078	2058	2076
2076	2078	2059	2075
2076	2077	2060	2074
2075	2079	2058	2074
2077	2079	2057	2075
2078	2078	2058	2075
2076	2078	2058	2075
2076	2079	2058	2074
2078	2080	2059	2074
2078	2079	2059	2074
2079	2079	2058	2075
2081	2080	2060	2075
2081	2078	2059	2074
2080	2078	2058	2074
2078	2079	2060	2073
2078	2080	2060	2073
2077	2080	2060	2073
2078	2080	2060	2074
2078	2081	2060	2075
2078	2082	2061	2075
2076	2083	2063	2074
2076	2082	2063	2074
2078	2081	2061	2074
2078	2083	2061	2074
2079	2082	2060	2071
2077	2081	2062	2072
2077	2082	2064	2071
2078	2081	2063	2071
2078	2082	2063	2071
2079	2083	2064	2071
2080	2084	2064	2072
2079	2084	2064	2073
2078	2084	2066	2075
2079	2083	2066	2075
2081	2082	2065	2074
2078	2083	2065	2075
2079	2084	2066	2076
2081	2085	2065	2074
2080	2085	2065	2073
2079	2085	2067	2074
2078	2085	2066	2073
2077	2085	2066	2072
2076	2083	2066	2072
2076	2084	2065	2071
2076	2085	2064	2072
2076	2087	2066	2072
2075	2085	2068	2071
2076	2084	2068	2072
2074	2084	2067	2073
2074	2085	2068	2072
2073	2087	2068	2071
2072	2087	2068	2073
2073	2088	2067	2073
2075	2087	2068	2072
2076	2088	2069	2072
2076	2089	2068	2072
2076	2091	2068	2072
2076	2090	2070	2072
2075	2087	2069	2072
2076	2088	2069	2072
2077	2090	2068	2070
2076	2090	2069	2070
2078	2090	2069	2070
2079	2089	2069	2071
2078	2087	2067	2071
2080	2086	2069	2071
2082	2087	2068	2072
2084	2087	2068	2072
2086	2086	2072	2071
2089	2086	2072	2072
2091	2086	2071	2071
2091	2085	2072	2072
2091	2083	2071	2073
2092	2086	2070	2072
2092	2085	2072	2071
2093	2084	2072	2071
2094	2083	2071	2072
2093	2083	2072	2071
2093	2083	2073	2071
2090	2083	2072	2071
2088	2083	2072	2071
2085	2082	2072	2071
2082	2082	2072	2070
2078	2081	2072	2071
2075	2080	2072	2072
2072	2079	2072	2071
2068	2081	2072	2071
2061	2080	2072	2071
2057	2081	2072	2071
2053	2082	2073	2072
2046	2082	2073	2072
2041	2082	2071	2071
2036	2082	2072	2070
2030	2082	2074	2071
2022	2080	2072	2073
2012	2080	2072	2073
2006	2080	2072	2074
1998	2080	2073	2074
1988	2080	2073	2073
1983	2080	2074	2074
1981	2081	2074	2074
1984	2081	2074	2073
1985	2080	2073	2073
1987	2078	2073	2073
1988	2079	2073	2072
1991	2079	2075	2073
1991	2080	2075	2073
1993	2079	2075	2073
1997	2079	2073	2075
2001	2079	2074	2075
2004	2079	2075	2075
2007	2079	2075	2076
2010	2079	2074	2078
2014	2077	2074	2077
2019	2078	2075	2077
2025	2078	2074	2077
2031	2077	2074	2076
2038	2076	2073	2075
2042	2075	2074	2077
2048	2075	2074	2078
2055	2076	2073	2077
2060	2075	2072	2077
2062	2074	2072	2076
2062	2074	2073	2076
2064	2076	2074	2077
2066	2075	2074	2076
2065	2074	2073	2077
2067	2075	2074	2077
2071	2075	2075	2077
2071	2074	2074	2077
2071	2073	2074	2077
2073	2074	2075	2077
2075	2074	2075	2077
2074	2076	2074	2077
2075	2076	2075	2076
2076	2075	2076	2077
2076	2076	2075	2078
2075	2076	2075	2078
2076	2075	2076	2077
2077	2074	2075	2077
2077	2075	2075	2076
2078	2074	2075	2076
2078	2073	2075	2077
2078	2072	2076	2078
2078	2074	2073	2077
2079	2074	2075	2076
2078	2072	2074	2077
2079	2072	2074	2077
2080	2072	2074	2078
2079	2072	2073	2078
2078	2073	2074	2079
2080	2073	2076	2080
2079	2072	2078	2083
2080	2072	2080	2082
2080	2071	2081	2084
2081	2073	2083	2086
2082	2073	2084	2086
2080	2073	2085	2087
2079	2074	2086	2089
2080	2074	2086	2090
2080	2073	2087	2090
2079	2073	2086	2090
2080	2076	2086	2091
2082	2077	2087	2093
2083	2076	2086	2093
2083	2077	2078	2091
2084	2075	2070	2091
2083	2076	2066	2092
2082	2076	2060	2092
2082	2076	2053	2091
2082	2075	2047	2090
2081	2074	2039	2088
2083	2073	2026	2089
2083	2073	2011	2089
2083	2074	1999	2086
2083	2076	1988	2085
2082	2078	1975	2084
2081	2076	1963	2081
2081	2076	1958	2080
2082	2074	1964	2081
2084	2077	1979	2080
2083	2077	1989	2080
2084	2076	1995	2080
2084	2076	2005	2080
2084	2077	2015	2079
2085	2077	2021	2079
2086	2077	2023	2079
2085	2077	2023	2076
2085	2076	2022	2076
2087	2076	2023	2075
2086	2077	2023	2073
2084	2078	2023	2073
2086	2077	2022	2073
2088	2077	2024	2072
2087	2076	2025	2071
2086	2077	2024	2072
2086	2076	2025	2073
2086	2076	2026	2072
2086	2076	2025	2072
2087	2077	2025	2071
2088	2078	2028	2071
2087	2077	2032	2071
2086	2075	2036	2071
2086	2078	2039	2072
2086	2078	2042	2072
2087	2078	2046	2071
2089	2078	2049	2071
2088	2078	2053	2072
2089	2077	2057	2071
2089	2074	2061	2071
2090	2076	2064	2069
2091	2078	2068	2069
2094	2076	2073	2069
2094	2076	2076	2070
2092	2074	2077	2070
2093	2073	2077	2070
2094	2074	2079	2069
2092	2073	2078	2069
2093	2073	2078	2069
2091	2073	2080	2069
2090	2073	2080	2069
2091	2074	2081	2068
2093	2074	2082	2068
2092	2074	2081	2068
2091	2073	2082	2067
2092	2074	2083	2066
2094	2075	2081	2067
2092	2074	2080	2068
2093	2075	2081	2068
2093	2075	2081	2067
2094	2075	2080	2066
2095	2075	2081	2066
2096	2076	2081	2066
2096	2077	2078	2065
2096	2077	2079	2064
2099	2077	2079	2063
2100	2078	2079	2062
2099	2077	2079	2062
2099	2076	2079	2062
2100	2076	2079	2061
2100	2076	2079	2062
2101	2075	2080	2062
2101	2075	2081	2060
2101	2073	2081	2060
2101	2073	2081	2062
2101	2074	2082	2064
2101	2074	2081	2064
2101	2073	2080	2065
2102	2074	2081	2068
2102	2074	2082	2071
2101	2074	2083	2072
2101	2074	2082	2072
2103	2073	2081	2072
2104	2073	2080	2072
2105	2074	2082	2073
2106	2074	2082	2074
2107	2072	2081	2075
2107	2072	2080	2076
2107	2073	2081	2079
2106	2072	2080	2083
2109	2072	2081	2087
2109	2072	2082	2091
2107	2072	2082	2095
2107	2072	2083	2099
2109	2071	2084	2100
2108	2073	2084	2100
2107	2072	2085	2099
2108	2071	2085	2096
2108	2072	2085	2095
2108	2072	2085	2094
2109	2073	2085	2092
2110	2072	2084	2091
2109	2072	2085	2090
2109	2073	2087	2089
2110	2073	2085	2087
2107	2071	2085	2087
2107	2071	2085	2085
2108	2073	2086	2083
2107	2074	2085	2083
2107	2073	2085	2083
2108	2072	2085	2080
2107	2072	2085	2080
2107	2073	2084	2081
2107	2072	2084	2080
2106	2072	2085	2079
2107	2072	2085	2079
2107	2073	2084	2079
2106	2073	2085	2077
2104	2073	2086	2076
2104	2073	2086	2075
2103	2073	2087	2072
2103	2073	2088	2071
2101	2073	2088	2071
2102	2073	2087	2070
2101	2072	2089	2069
2101	2072	2088	2069
2100	2072	2089	2069
2099	2070	2089	2068
2099	2069	2089	2068
2099	2070	2088	2067
2097	2069	2088	2066
2097	2069	2088	2065
2097	2069	2089	2066
2096	2067	2089	2067
2094	2069	2089	2067
2094	2070	2089	2065
2094	2071	2089	2068
2093	2072	2091	2067
2094	2072	2090	2064
2093	2072	2089	2065
2091	2072	2091	2066
2090	2071	2090	2065
2092	2071	2089	2064
2090	2071	2090	2064
2089	2072	2090	2063
2088	2072	2089	2062
2087	2072	2089	2063
2085	2073	2089	2063
2087	2074	2088	2062
2087	2074	2088	2063
2083	2073	2088	2064
2083	2073	2087	2063
2083	2074	2086	2063
2083	2074	2087	2064
2083	2074	2087	2062
2082	2074	2087	2062
2082	2073	2087	2062
2082	2072	2086	2060
2080	2072	2086	2060
2078	2072	2087	2061
2078	2072	2086	2061
2080	2071	2086	2060
2080	2071	2087	2061
2079	2072	2087	2061
2077	2070	2087	2061
2077	2070	2086	2061
2077	2070	2086	2063
2078	2071	2085	2064
2078	2070	2086	2063
2077	2073	2084	2063
2077	2073	2084	2063
2078	2072	2084	2062
2077	2073	2083	2060
2076	2075	2082	2060
2076	2076	2083	2061
2077	2076	2083	2061
2076	2076	2083	2062
2076	2076	2083	2062
2076	2077	2082	2061
2076	2078	2082	2061
2077	2080	2083	2060
2077	2081	2083	2061
2077	2080	2081	2061
2077	2081	2082	2062
2076	2082	2082	2063
2074	2081	2080	2062
2076	2080	2080	2062
2075	2082	2081	2061
2076	2083	2080	2061
2076	2082	2080	2062
2075	2082	2079	2062
2075	2082	2079	2062
2076	2081	2079	2061
2076	2080	2078	2063
2074	2081	2077	2062
2074	2079	2077	2061
2076	2079	2076	2062
2075	2080	2076	2063
2074	2078	2076	2062
2075	2077	2076	2063
2073	2078	2075	2064
2074	2078	2074	2063
2075	2076	2075	2064
2075	2075	2075	2064
2075	2074	2073	2062
2076	2070	2074	2063
2076	2068	2074	2063
2076	2067	2074	2064
2075	2064	2072	2064
2075	2062	2073	2063
2075	2058	2073	2063
2075	2054	2072	2064
2075	2050	2072	2064
2074	2047	2071	2062
2075	2043	2069	2064
2075	2040	2068	2065
2074	2036	2069	2063
2074	2031	2068	2062
2074	2026	2068	2063
2074	2022	2067	2063
2073	2017	2066	2063
2072	2012	2065	2061
2073	2007	2066	2062
2072	2003	2066	2063
2071	2001	2065	2064
2070	2001	2065	2063
2071	2000	2065	2062
2072	2000	2064	2062
2072	1999	2065	2063
2071	1997	2063	2063
2071	1997	2061	2063
2072	1998	2060	2063
2072	2001	2058	2062
2073	2004	2057	2063
2073	2005	2057	2062
2071	2007	2057	2061
2074	2009	2055	2062
2075	2010	2055	2063
2077	2015	2054	2063
2076	2018	2052	2062
2077	2022	2051	2062
2076	2025	2049	2061
2075	2027	2048	2060
2075	2031	2047	2062
2075	2035	2045	2064
2074	2036	2045	2063
2075	2037	2047	2064
2073	2037	2049	2064
2073	2037	2049	2064
2073	2037	2050	2063
2073	2038	2052	2063
2073	2037	2054	2064
2072	2037	2055	2065
2072	2040	2056	2065
2070	2038	2058	2066
2071	2038	2057	2066
2072	2040	2056	2066
2073	2039	2057	2067
2074	2038	2057	2067
2075	2042	2056	2066
2075	2042	2054	2067
2076	2041	2047	2068
2075	2044	2040	2067
2073	2045	2035	2068
2073	2044	2029	2067
2074	2045	2023	2068
2073	2047	2018	2068
2073	2049	2014	2070
2073	2049	2010	2070
2073	2049	2011	2069
2073	2050	2010	2070
2073	2052	2006	2070
2074	2052	2005	2070
2075	2052	2004	2071
2075	2055	2002	2072
2073	2056	2002	2071
2073	2056	2007	2071
2075	2055	2008	2073
2074	2057	2009	2072
2073	2059	2011	2072
2075	2059	2012	2072
2074	2059	2013	2072
2075	2061	2017	2072
2075	2063	2022	2073
2075	2065	2024	2072
2074	2066	2028	2072
2074	2069	2033	2073
2075	2072	2036	2072
2075	2073	2039	2072
2074	2074	2044	2073
2074	2073	2046	2074
2073	2073	2049	2074
2072	2074	2052	2074
2072	2072	2056	2074
2070	2073	2059	2074
2070	2073	2063	2074
2069	2073	2066	2074
2070	2074	2067	2073
2070	2074	2070	2073
2070	2074	2071	2073
2071	2074	2074	2073
2070	2075	2076	2073
2072	2076	2077	2072
2074	2077	2079	2072
2073	2077	2081	2073
2073	2078	2080	2073
2072	2078	2081	2073
2072	2078	2083	2074
2073	2078	2083	2076
2073	2078	2084	2077
2072	2079	2085	2076
2073	2079	2084	2075
2073	2079	2084	2074
2073	2079	2085	2075
2073	2080	2084	2076
2072	2079	2084	2077
2073	2079	2085	2076
2073	2080	2086	2075
2072	2081	2084	2076
2073	2079	2083	2074
2076	2078	2084	2075
2075	2080	2085	2075
2074	2079	2084	2076
2075	2078	2084	2075
2074	2078	2083	2074
2074	2078	2083	2072
2076	2079	2083	2072
2075	2079	2084	2074
2073	2080	2084	2073
2074	2080	2083	2072
2074	2079	2083	2074
2072	2079	2083	2074
2072	2081	2084	2073
2072	2080	2083	2075
2073	2080	2082	2075
2072	2079	2084	2074
2071	2080	2084	2075
2072	2080	2084	2076
2072	2079	2084	2076
2073	2080	2085	2076
2073	2081	2085	2076
2074	2081	2085	2076
2075	2081	2085	2075
2076	2081	2086	2076
2077	2083	2088	2076
2077	2083	2087	2075
2076	2082	2087	2075
2077	2082	2087	2074
2078	2081	2087	2074
2076	2082	2086	2074
2076	2082	2086	2075
2076	2083	2086	2075
2076	2083	2085	2074
2076	2081	2085	2076
2076	2080	2086	2075
2076	2081	2085	2075
2077	2082	2087	2076
2075	2084	2087	2075
2074	2085	2087	2075
2075	2085	2087	2076
2075	2084	2088	2076
2076	2084	2088	2077
2075	2085	2088	2076
2075	2085	2088	2076
2074	2086	2089	2075
2075	2085	2089	2075
2077	2086	2089	2075
2076	2085	2090	2073
2075	2086	2088	2074
2075	2087	2088	2073
2076	2089	2089	2074
2077	2088	2088	2073
2076	2089	2090	2073
2076	2091	2091	2073
2076	2090	2091	2073
2075	2091	2091	2073
2076	2093	2092	2073
2076	2093	2091	2073
2076	2091	2091	2075
2075	2092	2092	2075
2075	2092	2092	2075
2075	2092	2092	2076
2075	2093	2092	2074
2075	2094	2091	2073
2074	2092	2091	2075
2073	2094	2091	2075
2074	2096	2091	2075
2074	2096	2091	2075
2074	2097	2091	2074
2074	2097	2092	2072
2075	2098	2090	2072
2074	2100	2092	2072
2073	2103	2091	2074
2073	2105	2090	2075
2075	2107	2091	2077
2075	2109	2091	2077
2074	2110	2090	2077
2073	2109	2091	2077
2074	2110	2091	2078
2076	2114	2090	2077
2074	2115	2090	2078
2076	2116	2092	2078
2075	2117	2092	2077
2074	2117	2090	2077
2075	2118	2090	2078
2075	2122	2091	2077
2073	2125	2091	2076
2074	2125	2092	2077
2074	2128	2091	2076
2075	2131	2091	2075
2075	2132	2090	2077
2074	2131	2091	2078
2074	2135	2089	2076
2074	2134	2089	2075
2074	2135	2089	2076
2075	2138	2087	2076
2076	2139	2087	2076
2075	2140	2088	2076
2074	2141	2087	2076
2074	2143	2086	2077
2076	2142	2086	2076
2076	2140	2087	2076
2075	2141	2086	2076
2075	2143	2085	2076
2076	2144	2085	2077
2077	2144	2084	2077
2079	2142	2086	2076
2077	2141	2086	2075
2077	2141	2085	2077
2077	2143	2086	2077
2078	2143	2086	2075
2079	2141	2086	2075
2079	2142	2085	2077
2079	2142	2085	2075
2078	2141	2085	2076
2077	2141	2084	2076
2077	2141	2083	2075
2077	2140	2083	2076
2076	2139	2083	2077
2076	2139	2082	2077
2077	2138	2082	2077
2077	2137	2082	2079
2076	2136	2081	2081
2076	2137	2080	2082
2077	2135	2082	2084
2077	2135	2083	2088
2077	2134	2082	2089
2077	2132	2082	2090
2078	2130	2080	2090
2079	2129	2080	2090
2079	2128	2079	2093
2079	2126	2080	2094
2078	2125	2080	2095
2077	2123	2079	2097
2078	2123	2078	2100
2078	2122	2078	2101
2077	2122	2078	2102
2078	2125	2079	2105
2076	2123	2079	2109
2075	2122	2078	2110
2075	2122	2076	2112
2075	2121	2078	2113
2076	2120	2078	2115
2076	2119	2078	2117
2077	2118	2078	2119
2078	2117	2078	2120
2078	2117	2077	2122
2081	2116	2078	2123
2082	2115	2078	2124
2082	2113	2078	2124
2083	2112	2077	2125
2083	2111	2077	2127
2083	2109	2077	2126
2083	2107	2077	2127
2083	2106	2077	2127
2083	2104	2077	2129
2083	2103	2078	2130
2083	2102	2077	2131
2083	2102	2078	2133
2083	2101	2078	2133
2083	2100	2078	2134
2081	2099	2076	2135
2080	2097	2077	2136
2080	2096	2077	2137
2082	2096	2075	2136
2082	2094	2077	2136
2083	2093	2077	2137
2084	2094	2077	2135
2085	2092	2076	2133
2085	2091	2076	2133
2085	2092	2076	2132
2086	2093	2076	2129
2086	2093	2076	2128
2086	2091	2077	2127
2086	2090	2076	2125
2089	2090	2077	2123
2088	2090	2078	2121
2088	2090	2077	2119
2089	2089	2078	2118
2089	2087	2076	2117
2089	2086	2075	2117
2090	2086	2075	2116
2091	2084	2075	2114
2090	2084	2074	2112
2088	2084	2073	2112
2088	2084	2076	2112
2088	2083	2074	2111
2089	2084	2074	2111
2087	2084	2076	2111
2088	2084	2077	2110
2087	2084	2078	2109
2087	2084	2079	2109
2089	2083	2079	2108
2089	2083	2079	2108
2090	2083	2079	2106
2089	2083	2079	2104
2088	2081	2078	2104
2089	2080	2080	2103
2089	2080	2080	2102
2090	2081	2078	2100
2091	2082	2078	2099
2090	2081	2078	2094
2090	2081	2078	2090
2090	2080	2077	2087
2089	2081	2077	2085
2088	2081	2076	2083
2087	2081	2076	2081
2087	2081	2076	2077
2087	2080	2076	2076
2087	2080	2077	2073
2087	2080	2077	2071
2086	2081	2078	2069
2086	2081	2079	2067
2085	2079	2080	2066
2084	2079	2080	2066
2085	2079	2077	2067
2084	2080	2077	2066
2084	2080	2078	2065
2084	2081	2077	2064
2083	2080	2077	2062
2082	2082	2077	2062
2082	2082	2077	2063
2081	2082	2077	2061
2082	2082	2077	2061
2081	2084	2076	2062
2081	2084	2076	2062
2080	2082	2077	2061
2079	2080	2076	2060
2078	2080	2076	2060
2078	2080	2077	2061
2078	2081	2077	2060
2076	2080	2077	2060
2077	2080	2078	2060
2077	2080	2078	2059
2076	2078	2079	2058
2076	2080	2080	2058
2076	2080	2080	2057
2075	2080	2079	2057
2074	2080	2080	2058
2076	2079	2081	2057
2074	2077	2081	2056
2074	2077	2080	2056
2074	2078	2080	2056
2075	2078	2079	2055
2073	2078	2079	2054
2074	2078	2079	2054
2074	2077	2079	2053
2072	2078	2078	2054
2073	2078	2079	2056
2073	2078	2077	2054
2073	2079	2077	2052
2074	2078	2078	2053
2074	2077	2077	2052
2074	2077	2077	2051
2075	2078	2078	2051
2076	2077	2079	2051
2076	2076	2079	2051
2076	2076	2080	2051
2076	2076	2080	2049
2077	2074	2079	2050
2077	2074	2079	2050
2078	2075	2079	2049
2078	2073	2080	2048
2077	2073	2080	2049
2079	2073	2078	2049
2078	2074	2078	2047
2078	2075	2077	2047
2079	2076	2078	2048
2080	2076	2074	2046
2080	2076	2076	2045
2080	2077	2075	2047
2081	2077	2074	2047
2083	2076	2075	2045
2084	2075	2076	2046
2084	2075	2076	2045
2085	2074	2076	2044
2087	2073	2076	2046
2089	2074	2076	2046
2091	2074	2075	2043
2093	2074	2075	2045
2094	2074	2077	2045
2098	2073	2075	2042
2100	2073	2076	2044
2100	2073	2075	2046
2105	2074	2074	2044
2107	2074	2074	2043
2109	2073	2076	2044
2113	2073	2076	2042
2117	2073	2074	2042
2118	2073	2075	2041
2121	2075	2075	2040
2124	2073	2075	2040
2123	2073	2075	2040
2121	2073	2076	2040
2121	2072	2075	2041
2121	2071	2075	2041
2121	2071	2075	2039
2120	2071	2075	2040
2120	2073	2076	2040
2117	2072	2075	2041
2112	2071	2075	2038
2109	2072	2075	2040
2108	2073	2075	2041
2106	2072	2075	2040
2101	2073	2075	2040
2099	2074	2076	2040
2098	2074	2075	2039
2097	2074	2074	2039
2096	2075	2074	2040
2096	2074	2076	2040
2094	2074	2076	2038
2093	2074	2075	2040
2093	2073	2074	2041
2093	2073	2075	2041
2093	2074	2075	2041
2091	2073	2074	2041
2092	2073	2075	2041
2091	2073	2076	2042
2091	2074	2075	2043
2089	2073	2074	2044
2089	2073	2076	2045
2090	2074	2077	2043
2090	2073	2077	2043
2089	2072	2076	2044
2088	2073	2076	2045
2088	2073	2075	2045
2088	2073	2074	2044
2087	2074	2074	2044
2086	2073	2074	2043
2084	2073	2075	2044
2084	2072	2074	2046
2083	2072	2073	2046
2082	2072	2074	2046
2081	2072	2073	2046
2079	2072	2073	2048
2080	2072	2075	2048
2078	2071	2074	2048
2076	2071	2074	2050
2077	2071	2074	2049
2078	2070	2076	2049
2077	2071	2077	2051
2076	2070	2078	2050
2076	2070	2079	2051
2076	2070	2081	2053
2077	2071	2080	2053
2076	2071	2080	2051
2076	2072	2079	2052
2076	2071	2077	2054
2076	2071	2077	2054
2075	2072	2076	2053
2076	2074	2076	2054
2077	2072	2076	2055
2075	2071	2076	2053
2075	2071	2077	2053
2077	2073	2078	2055
2078	2073	2080	2055
2077	2074	2079	2054
2079	2074	2078	2054
2079	2074	2079	2055
2078	2075	2079	2056
2078	2074	2079	2058
2079	2074	2079	2059
2078	2075	2078	2058
2079	2076	2078	2058
2078	2074	2079	2060
2078	2074	2079	2061
2078	2076	2080	2062
2079	2074	2078	2062
2078	2074	2076	2062
2079	2074	2077	2062
2077	2074	2079	2063
2078	2074	2076	2064
2077	2074	2074	2065
2077	2074	2075	2066
2077	2073	2076	2066
2077	2073	2075	2067
2078	2074	2074	2069
2077	2075	2074	2069
2075	2074	2075	2069
2076	2075	2073	2071
2078	2074	2072	2071
2076	2074	2074	2068
2076	2074	2074	2070
2079	2074	2072	2073
2080	2074	2073	2073
2078	2074	2074	2073
2079	2074	2074	2073
2080	2071	2074	2072
2078	2071	2074	2072
2079	2070	2074	2072
2079	2070	2076	2073
2077	2069	2076	2073
2078	2069	2076	2072
2079	2068	2077	2072
2077	2068	2078	2071
2077	2069	2078	2071
2077	2070	2076	2070
2076	2071	2077	2069
2074	2072	2077	2070
2074	2072	2076	2068
2075	2072	2076	2068
2074	2072	2076	2068
2074	2073	2077	2069
2073	2073	2077	2069
2074	2072	2077	2069
2074	2073	2076	2071
2073	2073	2075	2073
2075	2073	2076	2072
2074	2073	2078	2071
2073	2073	2078	2072
2075	2073	2079	2072
2074	2072	2081	2071
2073	2073	2082	2070
2075	2073	2082	2073
2073	2073	2084	2073
2072	2074	2087	2073
2071	2074	2090	2072
2073	2074	2094	2072
2072	2074	2099	2072
2071	2074	2101	2072
2072	2073	2105	2074
2071	2074	2108	2074
2071	2075	2108	2072
2071	2073	2109	2074
2070	2072	2109	2075
2068	2072	2110	2075
2069	2071	2111	2075
2069	2069	2110	2074
2070	2071	2110	2075
2070	2071	2109	2074
2071	2072	2102	2074
2069	2073	2093	2074
2068	2073	2087	2074
2069	2072	2082	2074
2069	2073	2074	2074
2070	2073	2067	2072
2071	2073	2060	2071
2070	2073	2047	2072
2069	2074	2035	2073
2069	2074	2027	2073
2070	2074	2015	2074
2070	2073	2004	2074
2069	2075	1995	2074
2070	2076	1988	2074
2069	2075	1990	2073
2068	2073	1999	2074
2069	2072	2003	2075
2069	2072	2003	2074
2069	2071	2009	2074
2069	2070	2013	2074
2069	2069	2014	2074
2069	2070	2015	2075
2069	2070	2015	2075
2069	2071	2016	2075
2070	2070	2017	2075
2069	2071	2017	2076
2068	2072	2016	2076
2069	2072	2017	2075
2069	2072	2017	2074
2068	2072	2019	2072
2068	2072	2022	2069
2068	2073	2023	2068
2067	2073	2025	2066
2067	2072	2024	2065
2068	2072	2027	2061
2067	2073	2028	2059
2065	2071	2032	2057
2066	2071	2034	2056
2066	2072	2035	2054
2063	2072	2038	2050
2064	2070	2040	2048
2066	2069	2042	2046
2064	2072	2045	2043
2063	2071	2046	2040
2064	2071	2049	2037
2063	2072	2052	2036
2062	2071	2056	2034
2063	2071	2058	2031
2063	2072	2059	2029
2063	2071	2063	2027
2064	2070	2065	2024
2064	2070	2066	2021
2062	2071	2068	2017
2060	2072	2070	2015
2061	2073	2070	2012
2061	2071	2072	2008
2061	2071	2073	2007
2062	2073	2073	2007
2062	2071	2073	2008
2061	2069	2074	2009
2062	2070	2075	2009
2061	2070	2075	2009
2060	2069	2076	2010
2062	2070	2076	2009
2064	2071	2076	2010
2062	2072	2076	2011
2062	2072	2076	2012
2063	2071	2077	2013
2063	2071	2077	2012
2062	2072	2077	2013
2063	2074	2074	2014
2064	2074	2076	2014
2063	2071	2077	2015
2064	2072	2077	2015
2064	2072	2077	2015
2063	2071	2077	2014
2064	2072	2079	2012
2064	2073	2079	2011
2062	2073	2079	2012
2062	2072	2079	2013
2063	2072	2079	2016
2064	2071	2079	2016
2063	2069	2080	2017
2066	2070	2079	2018
2067	2070	2080	2020
2067	2069	2081	2021
2067	2071	2080	2020
2067	2073	2079	2021
2068	2072	2078	2020
2069	2072	2079	2019
2067	2072	2077	2019
2068	2071	2077	2020
2070	2072	2077	2020
2070	2073	2077	2019
2069	2072	2078	2020
2071	2071	2077	2021
2071	2072	2079	2022
2071	2074	2080	2021
2071	2072	2079	2021
2071	2072	2081	2024
2071	2072	2080	2026
2071	2071	2079	2030
2073	2072	2080	2034
2072	2073	2080	2039
2073	2071	2079	2042
2074	2072	2079	2047
2074	2072	2079	2052
2074	2072	2080	2053
2074	2071	2080	2054
2074	2072	2080	2054
2074	2072	2080	2055
2074	2072	2080	2057
2075	2073	2080	2058
2075	2073	2080	2058
2074	2071	2079	2060
2074	2071	2079	2063
2074	2071	2081	2066
2075	2072	2082	2069
2076	2071	2081	2070
2076	2073	2082	2072
2078	2073	2083	2075
2079	2071	2082	2078
2079	2071	2080	2079
2079	2072	2081	2079
2080	2073	2081	2080
2080	2073	2082	2081
2079	2072	2082	2083
2080	2072	2082	2084
2079	2073	2083	2085
2078	2073	2082	2084
2077	2073	2082	2083
2078	2071	2083	2083
2076	2073	2085	2084
2076	2073	2085	2082
2076	2072	2085	2082
2076	2072	2086	2084
2075	2072	2084	2082
2075	2072	2083	2082
2075	2072	2083	2083
2075	2072	2084	2083
2073	2072	2082	2083
2074	2072	2083	2084
2075	2073	2084	2083
2076	2074	2084	2083
2076	2074	2082	2084
2077	2072	2083	2085
2078	2072	2083	2083
2078	2072	2082	2084
2080	2069	2083	2082
2080	2069	2086	2083
2078	2070	2084	2083
2077	2070	2084	2084
2077	2069	2084	2085
2077	2070	2082	2085
2076	2071	2082	2085
2075	2071	2082	2085
2075	2070	2083	2085
2075	2071	2083	2086
2074	2071	2082	2088
2075	2072	2083	2090
2075	2072	2081	2090
2074	2071	2081	2089
2074	2071	2083	2091
2075	2072	2084	2093
2075	2072	2083	2094
2075	2073	2083	2096
2076	2073	2081	2096
2076	2072	2080	2096
2076	2071	2079	2098
2077	2072	2079	2099
2076	2071	2080	2100
2076	2070	2079	2103
2076	2071	2079	2102
2076	2071	2079	2100
2077	2071	2079	2102
2078	2071	2078	2103
2076	2071	2078	2101
2076	2071	2078	2101
2076	2071	2076	2103
2077	2072	2075	2105
2077	2070	2076	2105
2078	2069	2075	2107
2077	2069	2074	2107
2077	2070	2074	2107
2079	2070	2073	2108
2079	2071	2074	2108
2079	2070	2074	2111
2079	2069	2074	2111
2079	2069	2075	2109
2080	2071	2074	2111
2079	2070	2075	2111
2078	2070	2077	2111
2078	2071	2077	2111
2079	2070	2077	2113
2078	2070	2076	2113
2076	2072	2076	2114
2076	2071	2076	2113
2076	2071	2076	2111
2077	2073	2076	2112
2077	2072	2076	2112
2077	2072	2075	2111
2076	2073	2074	2111
2076	2074	2074	2111
2075	2074	2074	2111
2076	2074	2074	2112
2077	2073	2073	2111
2077	2072	2073	2111
2076	2073	2072	2111
2078	2073	2073	2111
2078	2073	2072	2111
2077	2076	2071	2112
2076	2075	2072	2113
2076	2075	2071	2114
2074	2076	2069	2114
2075	2075	2071	2113
2077	2075	2071	2114
2076	2076	2070	2115
2077	2075	2069	2113
2077	2073	2071	2112
2077	2075	2069	2114
2076	2077	2069	2113
2077	2075	2069	2112
2080	2076	2069	2111
2082	2077	2067	2111
2083	2077	2067	2111
2085	2078	2067	2110
2087	2080	2067	2109
2089	2080	2068	2110
2090	2079	2067	2111
2090	2080	2066	2109
2090	2079	2065	2109
2089	2079	2066	2108
2091	2080	2064	2108
2091	2078	2064	2108
2093	2076	2064	2106
2092	2077	2064	2107
2088	2077	2062	2108
2085	2076	2061	2105
2085	2075	2060	2104
2083	2076	2059	2105
2078	2076	2059	2104
2076	2076	2057	2102
2074	2075	2056	2103
2068	2074	2056	2102
2063	2074	2053	2098
2057	2073	2053	2098
2053	2072	2053	2099
2049	2073	2050	2098
2042	2072	2049	2096
2035	2072	2049	2097
2030	2073	2049	2095
2022	2071	2045	2094
2013	2072	2041	2094
2007	2072	2039	2095
1998	2072	2036	2095
1988	2071	2033	2093
1984	2072	2031	2093
1982	2072	2028	2095
1984	2072	2026	2094
1987	2070	2026	2091
1988	2068	2026	2092
1988	2070	2024	2093
1990	2070	2024	2091
1992	2069	2024	2090
1994	2067	2022	2090
1999	2068	2023	2090
2002	2068	2026	2090
2005	2067	2029	2088
2008	2069	2030	2088
2011	2069	2034	2087
2013	2069	2036	2088
2018	2069	2038	2088
2026	2068	2040	2088
2031	2068	2042	2087
2036	2068	2045	2087
2042	2068	2047	2087
2049	2068	2049	2086
2054	2067	2053	2086
2058	2066	2056	2086
2061	2067	2057	2085
2062	2067	2056	2085
2062	2067	2058	2085
2066	2066	2059	2084
2066	2066	2058	2084
2065	2067	2059	2084
2069	2066	2060	2082
2071	2067	2060	2082
2069	2067	2064	2083
2072	2067	2066	2082
2073	2067	2068	2082
2071	2066	2071	2083
2073	2066	2072	2084
2076	2066	2074	2081
2076	2066	2075	2081
2078	2066	2083	2081
2079	2066	2086	2080
2076	2067	2090	2080
2076	2067	2095	2082
2078	2068	2100	2082
2077	2068	2106	2081
2075	2067	2111	2082
2076	2068	2111	2082
2076	2067	2109	2081
2077	2067	2108	2082
2078	2068	2108	2081
2079	2069	2107	2080
2078	2068	2106	2080
2078	2067	2105	2078
2078	2067	2103	2080
2078	2067	2100	2081
2080	2068	2099	2081
2079	2068	2097	2080
2079	2066	2092	2081
2079	2067	2091	2080
2080	2068	2088	2080
2079	2069	2084	2079
2079	2070	2079	2078
2079	2070	2077	2078
2079	2069	2073	2080
2080	2068	2069	2080
2082	2068	2064	2080
2082	2068	2061	2081
2082	2068	2058	2079
2082	2069	2058	2081
2082	2069	2059	2081
2081	2069	2059	2080
2082	2070	2059	2082
2082	2071	2057	2081
2083	2072	2058	2079
2083	2073	2059	2080
2083	2073	2060	2081
2082	2073	2061	2081
2081	2074	2062	2080
2083	2075	2061	2081
2083	2076	2061	2080
2082	2076	2062	2080
2083	2077	2064	2080
2083	2078	2064	2080
2083	2078	2064	2079
2084	2078	2064	2081
2085	2079	2065	2079
2084	2078	2065	2079
2084	2078	2066	2079
2084	2079	2065	2080
2085	2079	2065	2080
2086	2082	2065	2082
2086	2087	2065	2082
2085	2091	2065	2081
2084	2095	2066	2081
2085	2100	2065	2082
2085	2101	2068	2081
2083	2102	2068	2080
2085	2102	2066	2081
2085	2098	2066	2081
2084	2096	2065	2080
2085	2096	2065	2080
2086	2092	2064	2080
2086	2090	2065	2080
2085	2089	2064	2081
2086	2086	2064	2080
2085	2081	2064	2083
2086	2078	2065	2082
2086	2076	2066	2080
2086	2072	2067	2081
2087	2068	2066	2080
2087	2065	2067	2079
2088	2063	2067	2080
2088	2063	2067	2081
2089	2062	2065	2080
2090	2060	2065	2080
2091	2058	2065	2080
2092	2055	2064	2081
2092	2055	2063	2081
2091	2055	2063	2080
2090	2058	2063	2080
2091	2060	2064	2079
2090	2061	2063	2078
2089	2061	2064	2078
2090	2063	2065	2078
2089	2063	2063	2078
2089	2063	2063	2078
2090	2062	2062	2076
2092	2064	2063	2078
2092	2064	2064	2079
2093	2064	2064	2079
2092	2062	2064	2078
2091	2060	2064	2079
2093	2061	2064	2079
2094	2062	2064	2077
2094	2063	2064	2079
2095	2064	2063	2078
2095	2066	2063	2077
2097	2067	2063	2077
2096	2068	2064	2078
2097	2069	2063	2077
2097	2068	2063	2077
2098	2069	2063	2079
2099	2068	2064	2080
2098	2069	2063	2079
2098	2067	2063	2080
2099	2069	2063	2080
2098	2069	2063	2079
2099	2068	2062	2078
2100	2069	2061	2078
2099	2070	2061	2078
2099	2071	2062	2078
2100	2069	2061	2078
2101	2070	2060	2078
2102	2071	2060	2078
2102	2070	2059	2078
2102	2070	2057	2078
2103	2072	2059	2080
2105	2069	2059	2080
2105	2070	2057	2079
2104	2071	2058	2079
2106	2071	2058	2078
2106	2070	2060	2077
2106	2072	2060	2078
2106	2072	2059	2077
2107	2071	2059	2077
2108	2073	2058	2077
2106	2071	2060	2077
2106	2071	2061	2077
2107	2072	2060	2076
2109	2072	2058	2077
2108	2071	2057	2077
2108	2071	2057	2077
2110	2070	2056	2078
2112	2069	2053	2077
2111	2069	2052	2077
2109	2069	2053	2078
2109	2068	2052	2077
2110	2069	2052	2077
2109	2070	2050	2078
2109	2071	2050	2077
2108	2072	2049	2076
2109	2073	2049	2075
2109	2073	2049	2076
2109	2072	2051	2076
2108	2070	2049	2075
2108	2069	2049	2076
2108	2070	2049	2076
2108	2071	2047	2076
2110	2071	2046	2075
2108	2071	2046	2076
2106	2070	2048	2076
2105	2070	2045	2076
2105	2069	2043	2076
2105	2070	2045	2076
2105	2072	2045	2076
2104	2070	2043	2075
2102	2069	2044	2075
2102	2070	2043	2075
2101	2071	2042	2076
2102	2071	2043	2076
2101	2072	2043	2075
2100	2072	2043	2075
2100	2071	2044	2076
2099	2072	2044	2077
2099	2073	2041	2077
2097	2072	2043	2076
2096	2072	2045	2075
2095	2072	2045	2074
2094	2072	2044	2075
2093	2072	2045	2076
2093	2073	2043	2075
2093	2073	2044	2074
2092	2070	2045	2076
2091	2072	2046	2076
2089	2072	2046	2075
2089	2071	2046	2076
2089	2070	2046	2077
2086	2070	2046	2076
2085	2070	2046	2076
2087	2069	2047	2076
2086	2069	2047	2076
2084	2069	2045	2076
2083	2068	2046	2076
2084	2069	2047	2076
2082	2069	2047	2075
2081	2069	2048	2075
2081	2069	2049	2075
2081	2070	2049	2076
2081	2070	2049	2076
2080	2071	2049	2075
2079	2072	2049	2076
2080	2073	2050	2076
2078	2071	2052	2076
2077	2070	2051	2075
2078	2071	2051	2076
2078	2071	2053	2075
2077	2070	2054	2076
2077	2069	2053	2076
2079	2068	2053	2076
2077	2068	2055	2077
2077	2068	2054	2077
2077	2068	2053	2077
2077	2069	2055	2076
2076	2068	2056	2076
2077	2068	2055	2075
2076	2069	2054	2076
2076	2070	2052	2076
2077	2071	2055	2075
2077	2070	2056	2075
2077	2070	2056	2076
2077	2070	2055	2075
2077	2071	2055	2075
2077	2071	2055	2075
2078	2072	2055	2075
2079	2070	2055	2075
2077	2070	2055	2075
2076	2069	2056	2075
2076	2069	2056	2075
2076	2069	2057	2075
2076	2070	2057	2075
2077	2069	2057	2075
2075	2070	2057	2076
2074	2069	2056	2075
2075	2070	2057	2076
2075	2070	2058	2076
2074	2070	2058	2075
2075	2071	2057	2076
2075	2072	2057	2076
2074	2072	2056	2076
2075	2072	2058	2077
2076	2071	2057	2077
2076	2073	2058	2076
2076	2072	2057	2077
2075	2071	2057	2078
2074	2071	2059	2077
2074	2072	2058	2078
2075	2072	2057	2078
2075	2072	2059	2077
2075	2073	2058	2078
2075	2075	2059	2079
2075	2075	2059	2078
2075	2074	2060	2078
2075	2075	2061	2079
2076	2076	2060	2078
2076	2076	2061	2078
2076	2075	2061	2079
2075	2074	2060	2076
2075	2075	2059	2077
2075	2076	2060	2076
2076	2077	2061	2076
2075	2077	2062	2076
2075	2077	2061	2076
2074	2078	2062	2076
2074	2079	2062	2077
2073	2079	2063	2078
2072	2079	2063	2077
2072	2080	2063	2077
2073	2080	2064	2079
2073	2081	2064	2079
2071	2080	2064	2077
2072	2082	2063	2077
2073	2082	2064	2075
2073	2083	2064	2076
2072	2083	2064	2076
2072	2083	2063	2076
2072	2084	2063	2075
2073	2084	2063	2075
2073	2085	2063	2075
2074	2085	2062	2076
2076	2085	2064	2077
2077	2085	2065	2077
2075	2086	2065	2077
2075	2087	2066	2076
2076	2088	2066	2075
2077	2087	2066	2074
2074	2088	2066	2073
2074	2088	2066	2074
2074	2088	2064	2073
2073	2090	2064	2073
2073	2089	2065	2073
2072	2089	2066	2074
2073	2088	2066	2073
2072	2088	2067	2074
2071	2087	2067	2074
2072	2088	2066	2074
2072	2089	2068	2072
2073	2088	2068	2072
2072	2087	2068	2073
2070	2086	2069	2072
2073	2085	2068	2072
2073	2085	2068	2073
2073	2084	2068	2072
2074	2084	2068	2072
2075	2083	2069	2073
2074	2083	2069	2073
2073	2083	2069	2073
2074	2085	2069	2072
2075	2083	2068	2072
2075	2083	2069	2073
2074	2084	2069	2074
2073	2084	2069	2073
2075	2082	2069	2072
2074	2083	2070	2072
2072	2082	2069	2072
2073	2081	2070	2072
2074	2081	2072	2073
2075	2082	2072	2073
2074	2081	2071	2072
2074	2081	2072	2073
2074	2081	2072	2072
2074	2081	2071	2072
2073	2081	2072	2072
2073	2080	2073	2073
2073	2079	2072	2072
2072	2080	2073	2074
2073	2080	2074	2074
2073	2079	2076	2073
2073	2079	2075	2073
2073	2079	2075	2074
2073	2077	2074	2076
2073	2078	2075	2077
2073	2079	2074	2077
2072	2077	2075	2076
2072	2076	2075	2077
2071	2075	2075	2075
2071	2077	2074	2074
2071	2077	2075	2073
2071	2075	2075	2073
2071	2075	2074	2073
2070	2073	2076	2073
2071	2073	2075	2074
2072	2073	2075	2074
2072	2073	2075	2073
2071	2072	2075	2074
2072	2070	2074	2074
2073	2071	2075	2075
2074	2071	2075	2076
2073	2070	2075	2077
2073	2071	2074	2075
2074	2072	2075	2075
2074	2072	2075	2075
2074	2071	2076	2075
2074	2070	2075	2075
2074	2071	2073	2076
2074	2072	2073	2074
2074	2071	2074	2074
2075	2071	2073	2075
2075	2073	2074	2075
2075	2073	2074	2075
2075	2071	2075	2075
2075	2072	2075	2075
2076	2073	2077	2075
2077	2073	2078	2075
2077	2074	2076	2075
2076	2073	2075	2075
2076	2072	2077	2076
2077	2073	2076	2075
2076	2074	2074	2074
2075	2074	2076	2074
2076	2073	2077	2074
2077	2074	2077	2074
2072	2075	2077	2075
2073	2075	2078	2076
2075	2074	2077	2075
2076	2074	2077	2074
2076	2075	2077	2074
2077	2074	2077	2074
2077	2074	2077	2075
2075	2075	2078	2074
2075	2074	2075	2075
2076	2073	2076	2075
2075	2073	2078	2075
2076	2072	2076	2076
2077	2073	2076	2078
2076	2075	2079	2079
2076	2073	2081	2079
2076	2073	2083	2080
2077	2072	2083	2082
2076	2074	2084	2083
2075	2073	2084	2082
2077	2075	2087	2084
2076	2075	2089	2084
2076	2075	2089	2086
2077	2074	2088	2087
2077	2074	2088	2088
2075	2073	2088	2089
2076	2075	2089	2090
2076	2075	2087	2089
2075	2073	2080	2089
2076	2075	2073	2089
2076	2074	2068	2089
2074	2073	2062	2089
2073	2073	2055	2086
2074	2075	2049	2088
2074	2073	2040	2087
2073	2073	2027	2086
2075	2073	2014	2085
2076	2073	2001	2085
2076	2073	1989	2084
2075	2073	1975	2081
2077	2073	1965	2080
2076	2072	1957	2080
2075	2072	1964	2080
2076	2073	1978	2079
2076	2073	1989	2079
2075	2073	1994	2079
2077	2072	2006	2078
2076	2073	2016	2078
2075	2072	2021	2078
2075	2071	2023	2078
2076	2073	2023	2076
2075	2072	2021	2076
2076	2071	2023	2074
2077	2072	2023	2075
2076	2072	2021	2074
2075	2071	2021	2074
2075	2072	2023	2074
2076	2072	2022	2073
2077	2071	2023	2075
2075	2071	2025	2075
2075	2071	2022	2075
2076	2071	2024	2075
2076	2073	2026	2075
2076	2073	2027	2075
2076	2072	2031	2074
2076	2073	2037	2073
2076	2072	2040	2074
2075	2072	2042	2074
2075	2073	2047	2073
2076	2075	2051	2072
2075	2076	2054	2072
2075	2076	2060	2073
2075	2075	2061	2073
2074	2077	2062	2072
2074	2078	2067	2071
2075	2079	2072	2072
2075	2080	2074	2070
2076	2082	2077	2070
2076	2086	2079	2070
2074	2089	2077	2072
2074	2090	2078	2071
2076	2091	2080	2070
2075	2094	2081	2070
2074	2097	2080	2070
2075	2099	2082	2070
2075	2101	2081	2070
2075	2103	2080	2070
2075	2104	2080	2068
2075	2107	2081	2070
2073	2108	2081	2069
2075	2110	2080	2067
2075	2112	2079	2067
2075	2114	2080	2068
2075	2117	2080	2064
2076	2119	2080	2065
2075	2119	2079	2067
2075	2122	2079	2064
2076	2125	2078	2063
2076	2127	2077	2065
2076	2128	2075	2063
2074	2133	2076	2063
2076	2134	2077	2063
2076	2136	2078	2062
2076	2140	2078	2062
2076	2144	2077	2061
2077	2145	2078	2062
2076	2151	2078	2064
2075	2156	2081	2066
2075	2160	2081	2068
2075	2166	2079	2068
2074	2172	2080	2069
2075	2176	2080	2070
2074	2180	2079	2071
2074	2183	2079	2071
2074	2178	2080	2073
2076	2175	2079	2074
2076	2174	2079	2073
2076	2172	2079	2074
2076	2169	2079	2074
2077	2168	2080	2077
2076	2164	2079	2078
2076	2157	2079	2080
2077	2151	2079	2083
2077	2145	2080	2087
2077	2140	2079	2090
2075	2134	2080	2093
2076	2126	2080	2098
2076	2120	2082	2101
2075	2114	2084	2100
2075	2108	2084	2098
2074	2103	2083	2097
2074	2095	2084	2096
2073	2090	2084	2094
2073	2085	2083	2092
2075	2080	2083	2091
2076	2077	2083	2089
2077	2079	2084	2089
2078	2078	2083	2088
2079	2077	2084	2087
2079	2078	2083	2084
2080	2076	2082	2082
2082	2073	2083	2081
2081	2074	2083	2082
2082	2075	2085	2081
2081	2074	2084	2080
2080	2073	2083	2080
2081	2072	2082	2079
2083	2071	2083	2078
2084	2070	2083	2078
2082	2068	2083	2077
2081	2068	2083	2075
2081	2068	2083	2074
2080	2069	2084	2072
2080	2068	2085	2071
2081	2068	2084	2070
2081	2067	2083	2070
2080	2065	2085	2068
2081	2067	2086	2068
2084	2067	2086	2068
2086	2066	2084	2068
2084	2065	2085	2067
2084	2066	2086	2067
2084	2066	2085	2068
2085	2065	2086	2068
2086	2067	2086	2067
2087	2067	2086	2067
2088	2067	2086	2068
2087	2067	2086	2066
2087	2067	2085	2066
2087	2063	2086	2067
2088	2062	2087	2067
2089	2064	2087	2066
2090	2064	2087	2068
2089	2062	2086	2065
2089	2063	2086	2066
2089	2064	2086	2066
2090	2065	2088	2065
2090	2065	2087	2065
2090	2065	2086	2066
2089	2064	2085	2066
2088	2063	2086	2064
2087	2062	2085	2065
2088	2063	2085	2065
2088	2061	2085	2063
2088	2061	2084	2062
2087	2062	2084	2064
2088	2061	2085	2065
2087	2060	2084	2064
2088	2061	2086	2063
2090	2063	2085	2062
2089	2062	2085	2063
2087	2060	2085	2061
2089	2060	2084	2061
2090	2061	2086	2062
2088	2062	2086	2064
2089	2061	2086	2064
2088	2059	2085	2063
2086	2058	2085	2063
2086	2059	2087	2062
2087	2060	2086	2063
2087	2060	2086	2063
2088	2060	2087	2061
2086	2059	2085	2060
2084	2059	2084	2062
2084	2059	2084	2061
2086	2059	2084	2061
2085	2058	2084	2060
2085	2059	2084	2061
2084	2059	2085	2059
2083	2058	2084	2059
2082	2058	2083	2061
2082	2059	2083	2061
2082	2060	2083	2062
2082	2059	2083	2063
2082	2058	2083	2062
2082	2056	2083	2061
2080	2058	2082	2061
2080	2059	2083	2062
2080	2060	2083	2061
2078	2058	2082	2062
2078	2058	2081	2063
2078	2057	2080	2063
2078	2056	2081	2062
2078	2056	2081	2062
2079	2057	2081	2061
2079	2057	2081	2063
2078	2057	2081	2063
2077	2055	2081	2062
2076	2054	2080	2061
2074	2055	2079	2063
2076	2055	2078	2062
2076	2056	2077	2061
2076	2055	2077	2061
2074	2054	2077	2061
2074	2054	2075	2061
2073	2056	2076	2063
2075	2056	2076	2063
2074	2053	2076	2061
2075	2053	2073	2061
2074	2056	2074	2061
2075	2055	2074	2061
2075	2055	2073	2062
2074	2056	2072	2061
2075	2056	2074	2061
2075	2055	2073	2062
2077	2055	2072	2061
2077	2054	2071	2062
2078	2053	2070	2062
2079	2053	2071	2062
2079	2054	2071	2061
2079	2055	2069	2062
2081	2053	2071	2062
2080	2052	2071	2060
2080	2053	2070	2061
2081	2055	2069	2061
2082	2054	2069	2060
2082	2054	2068	2061
2080	2052	2066	2062
2081	2052	2065	2061
2082	2053	2065	2061
2082	2052	2064	2061
2081	2054	2063	2060
2081	2053	2064	2060
2082	2054	2063	2061
2083	2055	2061	2061
2083	2053	2060	2061
2084	2053	2059	2061
2085	2053	2056	2061
2087	2054	2056	2060
2089	2052	2056	2062
2091	2051	2055	2061
2093	2052	2052	2061
2095	2054	2052	2061
2096	2052	2051	2062
2099	2051	2050	2062
2102	2050	2049	2062
2104	2051	2049	2060
2105	2051	2047	2061
2108	2049	2046	2062
2112	2049	2049	2061
2114	2049	2049	2062
2117	2048	2051	2064
2120	2046	2052	2064
2121	2047	2053	2062
2122	2046	2055	2063
2122	2045	2057	2064
2120	2044	2057	2063
2119	2045	2057	2064
2120	2045	2056	2066
2120	2044	2056	2066
2117	2043	2056	2066
2117	2043	2055	2067
2115	2043	2056	2068
2112	2042	2053	2067
2108	2041	2047	2068
2106	2041	2040	2067
2103	2042	2035	2068
2100	2043	2031	2068
2098	2042	2024	2069
2099	2042	2018	2069
2096	2041	2015	2068
2095	2042	2013	2069
2096	2043	2012	2070
2094	2043	2011	2069
2093	2044	2009	2069
2094	2045	2006	2070
2092	2044	2005	2071
2090	2044	2003	2071
2092	2045	2005	2070
2095	2045	2007	2071
2093	2045	2009	2072
2094	2046	2008	2074
2093	2046	2010	2073
2092	2044	2013	2074
2092	2046	2016	2074
2092	2046	2018	2073
2090	2047	2021	2075
2089	2047	2025	2075
2088	2046	2028	2075
2088	2047	2032	2076
2088	2049	2036	2075
2085	2048	2040	2074
2082	2048	2042	2075
2082	2050	2045	2076
2083	2050	2048	2077
2080	2049	2051	2078
2079	2049	2055	2077
2080	2052	2058	2077
2079	2053	2061	2077
2078	2051	2064	2079
2078	2051	2067	2078
2077	2053	2067	2079
2077	2052	2068	2079
2078	2051	2071	2078
2077	2053	2073	2077
2077	2054	2075	2077
2078	2053	2077	2077
2078	2054	2078	2078
2078	2054	2078	2078
2077	2055	2078	2077
2075	2055	2079	2079
2076	2055	2081	2079
2075	2054	2082	2080
2076	2055	2082	2079
2075	2056	2082	2079
2076	2056	2081	2079
2077	2055	2081	2080
2076	2056	2083	2080
2076	2055	2083	2080
2075	2055	2083	2079
2077	2057	2084	2078
2076	2057	2082	2078
2076	2056	2082	2079
2076	2057	2082	2077
2075	2058	2080	2076
2074	2058	2081	2076
2076	2058	2082	2075
2076	2058	2080	2072
2076	2058	2082	2071
2076	2060	2082	2072
2076	2060	2083	2073
2076	2061	2082	2071
2077	2062	2082	2071
2077	2061	2083	2073
2076	2062	2082	2074
2076	2061	2082	2074
2077	2061	2082	2075
2077	2062	2081	2075
2076	2063	2081	2076
2076	2064	2081	2076
2076	2063	2082	2075
2076	2064	2082	2076
2076	2064	2081	2075
2076	2065	2081	2075
2077	2064	2082	2075
2078	2065	2084	2074
2078	2066	2085	2075
2079	2065	2084	2075
2078	2065	2084	2074
2078	2065	2085	2073
2078	2065	2085	2072
2078	2065	2086	2074
2078	2065	2086	2074
2078	2065	2084	2072
2078	2066	2085	2073
2078	2067	2084	2074
2079	2068	2085	2074
2077	2068	2084	2074
2076	2068	2085	2075
2077	2068	2084	2075
2076	2068	2086	2074
2074	2070	2086	2075
2074	2070	2087	2077
2076	2069	2088	2076
2075	2071	2088	2076
2076	2071	2086	2077
2074	2071	2088	2077
2074	2070	2088	2077
2075	2070	2088	2077
2074	2070	2089	2076
2074	2069	2089	2075
2075	2068	2088	2074
2074	2070	2088	2073
2074	2070	2090	2073
2075	2070	2088	2073
2074	2069	2089	2074
2071	2071	2090	2073
2073	2073	2091	2072
2073	2074	2092	2073
2072	2073	2092	2074
2071	2072	2091	2074
2072	2072	2093	2073
2070	2073	2092	2076
2070	2072	2091	2077
2071	2072	2091	2078
2069	2074	2092	2077
2070	2073	2091	2075
2071	2072	2093	2075
2070	2072	2093	2076
2069	2073	2091	2075
2069	2073	2091	2074
2069	2073	2093	2074
2070	2073	2092	2074
2071	2072	2091	2073
2070	2073	2091	2073
2071	2073	2092	2074
2071	2074	2093	2074
2071	2075	2092	2076
2070	2076	2092	2076
2068	2075	2091	2074
2070	2074	2093	2075
2069	2074	2092	2075
2069	2075	2092	2074
2069	2074	2092	2075
2070	2074	2091	2075
2070	2074	2091	2074
2070	2074	2093	2073
2071	2072	2093	2074
2070	2072	2093	2073
2069	2073	2093	2072
2070	2074	2093	2072
2071	2075	2093	2073
2071	2076	2092	2073
2070	2076	2092	2072
2071	2076	2093	2073
2071	2076	2093	2073
2071	2076	2091	2072
2071	2074	2091	2073
2072	2075	2090	2074
2071	2076	2091	2073
2069	2076	2089	2074
2069	2076	2090	2074
2069	2075	2090	2074
2067	2075	2089	2074
2066	2074	2088	2075
2066	2074	2088	2075
2066	2074	2086	2075
2066	2075	2086	2074
2067	2076	2088	2076
2067	2076	2088	2076
2066	2075	2087	2074
2065	2075	2088	2075
2065	2073	2087	2076
2065	2073	2087	2076
2065	2074	2087	2075
2064	2075	2087	2074
2063	2075	2089	2074
2064	2074	2088	2074
2064	2075	2087	2073
2061	2076	2085	2074
2061	2074	2085	2074
2061	2074	2086	2074
2059	2075	2084	2074
2059	2074	2084	2075
2061	2074	2085	2077
2060	2074	2083	2080
2059	2073	2082	2082
2059	2074	2082	2083
2058	2073	2083	2086
2057	2071	2081	2087
2060	2071	2081	2089
2061	2072	2081	2090
2060	2074	2081	2090
2061	2074	2079	2092
2060	2074	2080	2094
2060	2075	2080	2094
2062	2074	2080	2096
2062	2073	2080	2098
2063	2075	2079	2099
2065	2075	2080	2101
2065	2074	2080	2104
2064	2074	2080	2107
2064	2076	2079	2109
2064	2075	2080	2110
2063	2075	2080	2112
2063	2074	2079	2114
2064	2075	2079	2116
2064	2075	2079	2118
2063	2075	2079	2120
2064	2075	2081	2121
2066	2076	2079	2121
2066	2076	2079	2123
2065	2075	2080	2124
2064	2076	2081	2124
2065	2075	2080	2124
2065	2076	2079	2125
2065	2076	2079	2126
2066	2075	2080	2128
2068	2074	2079	2128
2067	2075	2079	2130
2068	2076	2079	2131
2070	2076	2078	2131
2070	2075	2079	2131
2071	2075	2080	2132
2071	2076	2079	2134
2070	2076	2079	2134
2070	2077	2080	2136
2073	2074	2079	2137
2072	2076	2077	2135
2069	2076	2077	2135
2070	2074	2078	2135
2073	2075	2078	2135
2072	2076	2079	2134
2073	2076	2078	2133
2074	2077	2078	2130
2074	2076	2079	2128
2073	2076	2079	2126
2075	2075	2079	2124
2075	2076	2079	2122
2074	2075	2080	2121
2074	2075	2079	2120
2074	2076	2078	2119
2075	2075	2078	2119
2076	2074	2078	2118
2075	2074	2077	2115
2074	2075	2076	2114
2074	2075	2076	2114
2074	2074	2076	2113
2075	2074	2076	2113
2074	2075	2077	2113
2075	2074	2077	2112
2076	2073	2077	2111
2077	2073	2076	2111
2078	2074	2076	2111
2077	2072	2078	2111
2077	2071	2079	2110
2079	2072	2078	2110
2080	2073	2077	2107
2080	2073	2077	2106
2079	2072	2078	2107
2077	2072	2078	2106
2078	2073	2077	2106
2077	2072	2077	2104
2076	2072	2076	2099
2076	2072	2077	2096
2075	2073	2076	2094
2075	2072	2076	2090
2075	2073	2076	2087
2075	2071	2075	2086
2075	2072	2072	2084
2076	2073	2075	2080
2076	2073	2076	2078
2076	2073	2076	2075
2075	2073	2075	2073
2076	2072	2077	2073
2076	2073	2076	2070
2076	2073	2076	2068
2076	2072	2078	2068
2077	2072	2077	2068
2077	2071	2075	2066
2077	2072	2076	2064
2077	2072	2074	2065
2078	2072	2073	2065
2078	2070	2073	2065
2076	2072	2074	2064
2076	2072	2073	2065
2075	2072	2074	2064
2075	2072	2074	2064
2076	2073	2075	2062
2077	2075	2075	2062
2077	2074	2075	2062
2077	2075	2074	2061
2076	2074	2075	2061
2076	2073	2076	2060
2077	2073	2076	2060
2077	2074	2076	2060
2075	2073	2074	2059
2076	2072	2076	2058
2076	2073	2076	2057
2077	2073	2077	2058
2077	2072	2077	2058
2076	2073	2076	2057
2077	2072	2076	2056
2076	2071	2077	2056
2077	2070	2076	2056
2077	2071	2076	2056
2076	2071	2076	2056
2076	2072	2076	2054
2075	2073	2075	2053
2076	2072	2075	2052
2076	2072	2077	2053
2077	2074	2075	2053
2078	2074	2075	2052
2078	2074	2074	2051
2078	2074	2075	2051
2078	2074	2075	2051
2079	2073	2076	2051
2079	2073	2076	2049
2080	2073	2077	2050
2079	2074	2077	2051
2078	2073	2077	2051
2076	2072	2077	2048
2077	2072	2077	2049
2078	2071	2076	2049
2078	2073	2075	2049
2077	2072	2076	2049
2077	2071	2076	2049
2076	2072	2076	2049
2077	2071	2077	2048
2076	2072	2076	2047
2076	2073	2075	2046
2075	2073	2075	2045
2076	2073	2074	2045
2076	2074	2074	2045
2076	2073	2075	2045
2075	2074	2075	2044
2077	2075	2074	2044
2077	2075	2075	2044
2075	2073	2075	2043
2075	2074	2076	2043
2076	2074	2075	2043
2075	2073	2074	2044
2076	2073	2074	2044
2076	2073	2075	2043
2075	2072	2076	2043
2074	2071	2076	2042
2074	2070	2075	2043
2076	2072	2076	2042
2074	2072	2075	2042
2074	2071	2075	2041
2075	2070	2076	2041
2076	2069	2075	2042
2077	2068	2075	2041
2079	2070	2076	2041
2081	2069	2077	2041
2083	2070	2076	2039
2086	2069	2075	2039
2088	2069	2076	2041
2088	2069	2077	2040
2089	2069	2074	2040
2092	2070	2076	2040
2093	2070	2077	2041
2093	2070	2077	2040
2093	2069	2075	2040
2092	2068	2076	2040
2093	2071	2077	2040
2095	2072	2077	2040
2092	2068	2077	2039
2089	2069	2078	2039
2087	2071	2077	2039
2086	2070	2077	2039
2083	2071	2076	2039
2080	2072	2077	2039
2078	2071	2077	2039
2073	2069	2077	2039
2068	2069	2078	2039
2064	2069	2079	2040
2060	2069	2076	2040
2056	2072	2077	2040
2049	2070	2078	2040
2043	2068	2078	2041
2038	2070	2078	2041
2030	2070	2077	2043
2022	2070	2076	2042
2015	2071	2076	2041
2009	2071	2077	2042
2000	2070	2077	2041
1992	2069	2077	2041
1983	2070	2078	2042
1980	2071	2080	2042
1982	2071	2079	2041
1985	2071	2080	2042
1986	2070	2080	2043
1988	2070	2081	2043
1989	2070	2081	2043
1992	2070	2079	2043
1994	2070	2080	2043
1997	2071	2080	2045
2001	2070	2080	2045
2004	2068	2079	2046
2006	2069	2078	2048
2009	2070	2079	2049
2014	2070	2081	2048
2018	2071	2081	2049
2021	2069	2082	2049
2030	2069	2083	2049
2036	2070	2084	2051
2040	2070	2083	2052
2048	2070	2081	2051
2054	2070	2082	2052
2057	2071	2081	2053
2061	2070	2080	2053
2062	2069	2080	2052
2061	2070	2080	2054
2064	2070	2079	2054
2066	2069	2081	2054
2064	2070	2081	2053
2066	2068	2081	2054
2069	2069	2081	2055
2069	2070	2083	2055
2070	2069	2083	2055
2072	2070	2081	2056
2072	2071	2080	2056
2073	2070	2081	2058
2074	2069	2080	2059
2076	2070	2081	2059
2076	2071	2081	2060
2076	2069	2080	2060
2077	2069	2080	2060
2077	2070	2080	2062
2077	2068	2079	2063
2077	2069	2079	2063
2077	2069	2079	2063
2077	2068	2079	2063
2077	2069	2078	2064
2078	2069	2077	2067
2077	2068	2076	2068
2077	2069	2075	2069
2079	2070	2074	2070
2080	2071	2074	2071
2080	2071	2075	2071
2080	2071	2075	2071
2081	2072	2075	2071
2081	2072	2074	2072
2080	2071	2076	2073
2079	2070	2075	2073
2080	2069	2076	2072
2080	2069	2076	2072
2079	2069	2075	2073
2080	2069	2075	2073
2082	2070	2075	2074
2083	2069	2076	2073
2082	2070	2076	2073
2083	2069	2075	2073
2084	2068	2075	2073
2083	2069	2074	2072
2083	2069	2075	2073
2082	2069	2076	2072
2083	2069	2074	2072
2082	2069	2075	2071
2084	2069	2075	2070
2084	2071	2074	2070
2085	2071	2076	2069
2084	2070	2075	2069
2083	2070	2075	2070
2082	2070	2076	2070
2084	2069	2075	2071
2085	2069	2075	2071
2084	2070	2075	2071
2085	2070	2075	2071
2085	2069	2075	2072
2083	2069	2076	2073
2083	2069	2077	2072
2085	2069	2078	2072
2087	2069	2080	2071
2088	2070	2081	2072
2088	2068	2083	2073
2087	2068	2084	2073
2086	2070	2088	2073
2087	2070	2090	2073
2089	2069	2093	2073
2088	2070	2097	2073
2088	2071	2102	2073
2089	2070	2104	2073
2087	2070	2107	2074
2086	2070	2108	2074
2087	2071	2107	2074
2087	2070	2108	2074
2087	2070	2111	2076
2085	2069	2111	2076
2085	2069	2109	2076
2085	2068	2109	2076
2086	2070	2107	2077
2087	2068	2100	2077
2087	2069	2093	2077
2086	2068	2087	2077
2085	2068	2080	2076
2085	2068	2073	2076
2086	2069	2067	2075
2088	2068	2056	2074
2089	2069	2044	2074
2088	2070	2034	2075
2090	2070	2023	2075
2089	2069	2012	2074
2091	2070	2003	2077
2091	2070	1992	2079
2090	2070	1986	2079
2089	2069	1990	2078
2089	2070	1996	2078
2089	2071	1999	2078
2089	2070	2001	2078
2089	2070	2007	2077
2088	2068	2010	2077
2090	2069	2012	2078
2091	2069	2013	2078
2090	2068	2013	2077
2091	2069	2011	2077
2091	2070	2013	2077
2091	2067	2014	2077
2093	2068	2012	2078
2093	2069	2012	2077
2095	2069	2014	2074
2096	2069	2015	2071
2096	2070	2017	2069
2098	2069	2018	2067
2097	2069	2020	2065
2096	2070	2021	2064
2099	2069	2023	2062
2101	2069	2026	2059
2099	2070	2027	2057
2100	2070	2030	2055
2102	2070	2033	2051
2100	2070	2034	2050
2100	2070	2034	2049
2102	2069	2037	2045
2101	2069	2041	2044
2101	2069	2043	2041
2104	2069	2046	2037
2102	2070	2050	2036
2102	2069	2052	2033
2104	2070	2055	2030
2105	2069	2059	2028
2106	2070	2062	2027
2108	2071	2064	2024
2107	2070	2065	2021
2107	2069	2066	2018
2110	2068	2068	2014
2111	2069	2069	2011
2109	2068	2071	2008
2108	2069	2074	2005
2111	2070	2074	2005
2111	2071	2073	2007
2110	2070	2073	2007
2109	2071	2075	2007
2110	2072	2075	2008
2110	2073	2075	2009
2109	2071	2077	2009
2110	2072	2078	2009
2110	2073	2077	2009
2110	2072	2077	2011
2111	2070	2076	2011
2112	2071	2078	2011
2111	2070	2079	2012
2110	2070	2079	2014
2111	2071	2079	2013
2112	2070	2079	2012
2108	2068	2080	2013
2107	2069	2080	2014
2108	2069	2081	2013
2109	2068	2080	2011
2111	2068	2080	2012
2110	2069	2082	2011
2109	2069	2083	2012
2107	2069	2083	2014
2109	2070	2082	2017
2109	2069	2081	2017
2107	2071	2082	2016
2106	2070	2081	2019
2106	2071	2081	2020
2106	2070	2081	2018
2105	2071	2080	2020
2104	2071	2080	2020
2104	2071	2080	2018
2103	2070	2079	2018
2102	2071	2079	2020
2100	2070	2080	2020
2100	2070	2080	2020
2100	2071	2079	2020
2100	2072	2079	2020
2100	2072	2080	2022
2100	2072	2080	2022
2098	2074	2081	2021
2097	2074	2081	2023
2096	2073	2080	2026
2096	2074	2081	2029
2093	2075	2082	2034
2094	2074	2082	2038
2095	2072	2082	2041
2093	2073	2080	2045
2090	2074	2080	2049
2091	2072	2080	2050
2091	2072	2081	2051
2089	2071	2080	2052
2087	2071	2081	2053
2087	2070	2080	2055
2087	2072	2080	2056
2086	2072	2080	2056
2085	2070	2081	2058
2084	2070	2081	2061
2082	2072	2082	2065
2082	2072	2083	2068
2082	2073	2081	2070
2082	2074	2082	2073
2082	2073	2084	2074
2081	2073	2083	2075
2079	2074	2083	2076
2079	2073	2085	2078
2079	2073	2083	2080
2080	2073	2083	2080
2079	2073	2084	2081
2080	2073	2084	2082
2079	2074	2083	2083
2078	2074	2084	2083
2077	2073	2084	2083
2077	2072	2083	2083
2077	2071	2085	2083
2077	2069	2087	2082
2074	2069	2085	2083
2075	2070	2086	2082
2077	2070	2087	2082
2077	2069	2085	2082
2077	2070	2085	2082
2077	2071	2085	2082
2078	2071	2084	2082
2077	2070	2084	2083
2078	2071	2086	2084
2079	2071	2085	2084
2079	2072	2084	2083
2078	2071	2086	2084
2078	2071	2086	2084
2077	2070	2085	2084
2074	2072	2086	2083
2076	2072	2088	2084
2076	2072	2086	2085
2073	2071	2087	2085
2074	2068	2087	2084
2075	2070	2085	2085
2074	2072	2085	2083
2075	2070	2085	2085
2075	2069	2085	2086
2075	2070	2086	2085
2075	2070	2086	2087
2074	2069	2084	2089
2074	2070	2084	2090
2074	2071	2084	2091
2075	2071	2084	2092
2076	2072	2084	2095
2075	2071	2084	2095
2075	2071	2084	2096
2077	2072	2083	2096
2076	2072	2084	2096
2076	2072	2082	2099
2076	2072	2083	2100
2076	2072	2081	2103
2076	2072	2080	2103
2076	2071	2081	2102
2076	2071	2081	2102
2076	2070	2080	2103
2076	2070	2080	2103
2077	2070	2080	2102
2075	2070	2079	2102
2075	2070	2078	2104
2075	2071	2078	2102
2076	2070	2078	2104
2074	2071	2077	2105
2075	2072	2077	2106
2075	2073	2076	2106
2074	2073	2075	2107
2073	2073	2076	2109
2074	2074	2077	2109
2073	2072	2078	2109
2071	2073	2077	2109
2071	2074	2076	2110
2071	2074	2078	2112
2071	2073	2077	2113
2072	2073	2077	2114
2073	2073	2078	2116
2071	2070	2077	2117
2071	2070	2075	2117
2072	2071	2076	2117
2071	2070	2076	2117
2071	2071	2076	2116
2072	2070	2075	2114
2073	2069	2075	2115
2073	2069	2073	2115
2072	2069	2073	2114
2072	2069	2075	2114
2073	2070	2073	2114
2074	2069	2073	2114
2072	2071	2072	2115
2072	2070	2071	2116
2072	2072	2071	2114
2073	2073	2071	2115
2073	2075	2068	2116
2071	2075	2069	2115
2069	2074	2071	2116
2069	2075	2069	2116
2070	2075	2067	2117
2069	2076	2068	2117
2069	2077	2067	2117
2069	2077	2066	2115
2070	2077	2066	2116
2069	2078	2067	2116
2070	2078	2065	2115
2072	2078	2065	2113
2071	2077	2065	2113
2071	2076	2066	2112
2072	2077	2065	2112
2073	2077	2064	2111
2073	2077	2063	2110
2072	2077	2063	2111
2074	2079	2063	2112
2073	2078	2063	2111
2073	2078	2063	2110
2072	2079	2062	2110
2073	2081	2062	2109
2076	2079	2063	2108
2074	2079	2063	2107
2073	2080	2060	2106
2074	2080	2060	2106
2075	2079	2060	2105
2074	2076	2058	2105
2074	2076	2057	2104
2076	2077	2056	2103
2074	2075	2054	2102
2073	2075	2054	2101
2075	2074	2054	2100
2074	2075	2051	2099
2073	2075	2050	2098
2075	2074	2050	2098
2076	2076	2049	2098
2075	2076	2047	2097
2075	2074	2047	2096
2075	2075	2045	2096
2074	2078	2043	2094
2074	2075	2041	2094
2074	2074	2038	2095
2075	2075	2037	2093
2074	2075	2035	2092
2075	2074	2031	2093
2074	2074	2027	2093
2072	2073	2025	2092
2071	2073	2025	2090
2071	2074	2025	2092
2070	2075	2024	2092
2071	2075	2023	2091
2071	2074	2023	2090
2070	2075	2022	2091
2072	2075	2022	2091
2071	2075	2026	2090
2073	2076	2029	2090
2074	2074	2031	2090
2073	2073	2033	2090
2072	2074	2035	2088
2074	2074	2036	2088
2073	2073	2039	2088
2072	2074	2042	2087
2073	2074	2046	2086
2073	2073	2049	2086
2073	2073	2051	2086
2073	2072	2053	2085
2074	2072	2052	2084
2075	2074	2055	2085
2074	2074	2058	2085
2073	2073	2057	2084
2073	2073	2056	2084
2074	2072	2059	2083
2074	2072	2061	2083
2073	2071	2057	2082
2074	2072	2058	2082
2076	2071	2062	2082
2076	2071	2065	2081
2076	2070	2068	2081
2076	2070	2071	2081
2075	2067	2073	2081
2075	2068	2073	2080
2077	2067	2077	2079
2076	2069	2081	2079
2075	2069	2084	2079
2073	2068	2090	2079
2074	2070	2097	2080
2075	2071	2101	2080
2075	2071	2105	2080
2074	2071	2110	2081
2074	2070	2113	2079
2074	2071	2111	2080
2074	2072	2106	2081
2073	2071	2106	2080
2073	2071	2106	2079
2075	2072	2105	2080
2076	2072	2104	2080
2075	2071	2103	2080
2075	2070	2101	2080
2075	2071	2098	2080
2075	2070	2096	2079
2075	2070	2094	2079
2074	2071	2091	2079
2074	2071	2089	2079
2075	2072	2085	2079
2074	2071	2083	2077
2075	2070	2078	2078
2074	2069	2075	2079
2073	2069	2070	2077
2074	2070	2065	2079
2075	2071	2061	2079
2075	2071	2061	2078
2074	2070	2061	2079
2073	2069	2060	2080
2073	2070	2059	2079
2072	2070	2058	2080
2072	2069	2060	2080
2074	2070	2060	2080
2074	2070	2059	2080
2074	2069	2060	2080
2074	2071	2061	2079
2075	2073	2063	2079
2075	2074	2064	2080
2074	2074	2064	2079
2074	2075	2065	2080
2074	2076	2065	2080
2075	2077	2065	2078
2074	2079	2066	2078
2074	2082	2066	2079
2075	2085	2068	2080
2073	2087	2069	2078
2073	2091	2068	2079
2074	2094	2067	2079
2073	2093	2067	2079
2073	2093	2068	2080
2074	2093	2068	2081
2074	2094	2067	2081
2073	2092	2065	2080
2074	2092	2067	2079
2074	2093	2068	2079
2073	2091	2067	2078
2073	2088	2067	2080
2073	2083	2067	2079
2074	2081	2069	2078
2073	2079	2068	2079
2074	2076	2068	2078
2073	2073	2066	2078
2073	2071	2066	2079
2073	2070	2066	2078
2072	2067	2067	2078
2074	2063	2067	2078
2075	2061	2067	2080
2074	2059	2067	2079
2074	2057	2068	2080
2074	2056	2067	2080
2074	2057	2067	2080
2073	2057	2066	2080
2072	2055	2067	2081
2072	2056	2065	2081
2072	2058	2064	2080
2072	2059	2065	2080
2073	2060	2065	2080
2072	2061	2065	2079
2072	2060	2064	2080
2073	2061	2064	2079
2073	2062	2066	2077
2072	2064	2065	2078
2073	2065	2064	2079
2073	2065	2065	2079
2072	2066	2064	2080
2072	2068	2063	2080
2073	2067	2064	2078
2073	2067	2065	2080
2072	2069	2063	2079
2073	2070	2065	2079
2073	2070	2064	2079
2072	2070	2063	2080
2072	2071	2064	2080
2072	2069	2064	2078
2072	2069	2064	2078
2073	2070	2064	2078
2074	2066	2063	2077
2074	2068	2064	2079
2072	2070	2064	2079
2074	2069	2065	2078
2074	2068	2064	2079
2075	2068	2063	2080
2075	2066	2064	2079
2075	2065	2062	2078
2075	2067	2062	2080
2075	2068	2063	2078
2075	2068	2063	2077
2074	2068	2061	2079
2073	2069	2061	2079
2075	2070	2061	2077
2075	2072	2061	2079
2076	2073	2059	2078
2076	2072	2059	2078
2076	2071	2059	2079
2077	2071	2059	2080
2077	2071	2059	2078
2078	2070	2057	2078
2078	2069	2057	2079
2079	2068	2057	2079
2077	2070	2056	2079
2077	2068	2056	2079
2078	2069	2057	2079
2079	2070	2056	2078
2079	2071	2056	2078
2078	2070	2055	2078
2077	2071	2056	2078
2076	2071	2056	2078
2077	2071	2056	2077
2077	2072	2055	2078
2077	2071	2054	2079
2077	2071	2054	2078
2078	2072	2054	2076
2078	2072	2051	2078
2079	2073	2050	2080
2079	2073	2050	2079
2080	2072	2049	2078
2080	2072	2049	2079
2081	2070	2049	2078
2081	2070	2049	2078
2081	2070	2047	2077
2083	2069	2047	2078
2084	2069	2048	2077
2083	2069	2049	2079
2084	2068	2048	2080
2083	2067	2047	2078
2083	2067	2048	2077
2082	2067	2047	2078
2082	2066	2044	2079
2082	2066	2044	2078
2083	2066	2045	2077
2083	2066	2045	2077
2082	2069	2044	2079
2081	2071	2044	2078
2081	2071	2044	2077
2081	2072	2043	2077
2081	2072	2044	2078
2081	2072	2043	2077
2081	2073	2041	2077
2081	2071	2042	2077
2083	2070	2042	2076
2084	2071	2043	2078
2084	2068	2043	2078
2084	2067	2043	2076
2084	2069	2043	2077
2084	2070	2043	2077
2083	2068	2044	2076
2085	2069	2043	2076
2085	2071	2044	2077
2085	2069	2044	2077
2086	2071	2043	2077
2087	2072	2043	2076
2086	2071	2045	2077
2087	2072	2044	2076
2089	2073	2044	2078
2087	2071	2045	2077
2087	2072	2046	2077
2087	2073	2046	2077
2087	2073	2047	2077
2087	2072	2047	2076
2088	2073	2046	2076
2088	2073	2044	2076
2086	2073	2045	2076
2086	2072	2045	2076
2087	2073	2045	2076
2088	2072	2045	2077
2089	2072	2045	2076
2088	2072	2045	2076
2089	2073	2045	2077
2089	2073	2045	2077
2089	2073	2047	2076
2090	2074	2049	2078
2091	2073	2048	2077
2089	2073	2048	2076
2088	2073	2050	2076
2087	2073	2049	2077
2090	2074	2051	2076
2090	2073	2054	2074
2089	2073	2053	2075
2089	2073	2052	2076
2087	2072	2053	2077
2088	2073	2054	2076
2090	2074	2053	2077
2088	2073	2053	2077
2086	2073	2053	2078
2086	2074	2052	2077
2085	2073	2053	2077
2085	2074	2053	2076
2085	2074	2053	2077
2086	2073	2054	2077
2085	2074	2055	2075
2084	2074	2056	2075
2083	2074	2058	2076
2083	2074	2058	2073
2082	2075	2059	2072
2082	2076	2059	2074
2081	2076	2060	2075
2082	2077	2060	2074
2082	2077	2059	2074
2082	2076	2059	2075
2082	2079	2060	2073
2082	2079	2061	2076
2080	2078	2061	2076
2079	2077	2058	2075
2078	2080	2058	2075
2078	2078	2059	2076
2077	2078	2059	2074
2074	2078	2059	2076
2075	2078	2060	2075
2076	2077	2058	2075
2077	2079	2056	2074
2076	2080	2058	2075
2076	2079	2060	2076
2075	2079	2059	2075
2075	2078	2058	2075
2075	2077	2059	2076
2076	2078	2059	2075
2076	2079	2059	2075
2076	2079	2059	2077
2076	2079	2062	2077
2075	2078	2061	2075
2076	2079	2062	2076
2077	2080	2061	2077
2076	2081	2061	2075
2076	2080	2061	2073
2078	2081	2061	2074
2078	2082	2060	2074
2076	2080	2062	2072
2076	2080	2061	2074
2077	2082	2061	2073
2077	2082	2061	2072
2076	2081	2063	2073
2078	2082	2063	2074
2079	2081	2062	2073
2080	2081	2064	2074
2079	2081	2064	2075
2080	2081	2065	2074
2080	2082	2066	2074
2078	2082	2065	2076
2079	2082	2063	2075
2078	2083	2064	2074
2077	2084	2066	2074
2080	2085	2067	2074
2082	2084	2064	2073
2084	2085	2066	2073
2085	2085	2066	2074
2086	2085	2065	2073
2088	2086	2066	2072
2088	2086	2067	2073
2091	2086	2068	2073
2094	2085	2066	2073
2096	2084	2066	2074
2096	2085	2068	2073
2100	2085	2067	2073
2103	2086	2067	2074
2105	2087	2068	2073
2106	2086	2068	2073
2109	2086	2067	2074
2112	2086	2068	2074
2115	2089	2069	2073
2119	2089	2068	2073
2121	2088	2069	2074
2121	2088	2070	2074
2122	2088	2069	2073
2122	2087	2069	2073
2120	2087	2070	2073
2120	2088	2070	2073
2122	2088	2070	2073
2119	2085	2070	2072
2118	2085	2070	2072
2119	2086	2069	2074
2113	2087	2070	2073
2109	2086	2070	2073
2108	2084	2070	2074
2106	2083	2070	2075
2103	2085	2072	2073
2099	2086	2070	2073
2096	2084	2070	2074
2097	2084	2072	2072
2097	2083	2071	2073
2097	2082	2070	2074
2096	2082	2072	2074
2096	2083	2070	2073
2097	2082	2069	2074
2093	2083	2071	2074
2094	2083	2071	2074
2095	2082	2071	2074
2093	2079	2072	2074
2091	2080	2072	2072
2093	2081	2072	2073
2093	2082	2073	2074
2091	2082	2073	2074
2089	2082	2072	2074
2089	2082	2073	2075
2089	2083	2074	2074
2091	2083	2073	2075
2089	2085	2073	2075
2088	2084	2073	2076
2088	2082	2075	2076
2088	2081	2074	2075
2085	2082	2074	2077
2084	2081	2074	2076
2083	2080	2076	2075
2082	2080	2076	2076
2080	2081	2076	2076
2079	2080	2077	2074
2079	2080	2077	2075
2080	2081	2078	2074
2081	2080	2078	2074
2080	2079	2077	2073
2079	2079	2077	2072
2078	2078	2077	2073
2077	2079	2076	2075
2076	2080	2076	2076
2077	2079	2076	2078
2076	2078	2076	2077
2074	2077	2076	2076
2075	2077	2076	2074
2075	2078	2075	2077
2074	2078	2076	2078
2075	2078	2075	2077
2076	2077	2075	2077
2075	2076	2075	2077
2075	2076	2075	2078
2075	2077	2074	2077
2075	2076	2076	2075
2075	2076	2077	2075
2076	2074	2076	2077
2075	2074	2076	2077
2075	2075	2076	2077
2075	2076	2077	2076
2076	2075	2076	2076
2076	2076	2077	2078
2076	2076	2077	2078
2074	2075	2076	2078
2075	2075	2076	2079
2075	2075	2076	2079
2075	2075	2075	2078
2074	2076	2075	2076
2075	2075	2076	2078
2075	2073	2076	2079
2073	2075	2077	2079
2073	2074	2077	2079
2074	2072	2077	2077
2073	2074	2077	2078
2073	2073	2076	2077
2073	2071	2077	2076
2073	2072	2076	2077
2072	2072	2075	2078
2073	2072	2075	2076
2073	2072	2076	2077
2073	2074	2076	2079
2073	2074	2076	2079
2073	2073	2076	2078
2075	2073	2077	2082
2076	2073	2079	2082
2076	2074	2080	2080
2075	2074	2081	2084
2074	2072	2082	2084
2076	2072	2083	2086
2076	2073	2084	2088
2076	2074	2085	2089
2076	2073	2085	2087
2074	2074	2084	2088
2074	2075	2086	2090
2075	2076	2086	2089
2075	2077	2086	2090
2074	2077	2083	2090
2075	2076	2077	2089
2076	2077	2070	2090
2074	2075	2065	2090
2073	2075	2059	2090
2074	2076	2052	2088
2074	2075	2046	2087
2074	2073	2039	2087
2076	2072	2026	2087
2075	2073	2011	2086
2074	2074	1997	2084
2075	2075	1987	2083
2076	2077	1974	2082
2075	2078	1961	2080
2076	2076	1956	2079
2075	2077	1963	2080
2075	2077	1977	2080
2075	2078	1987	2080
2074	2077	1994	2079
2074	2077	2005	2079
2074	2077	2015	2079
2074	2077	2020	2078
2072	2077	2023	2079
2072	2077	2022	2078
2073	2077	2020	2076
2072	2078	2021	2075
2072	2078	2024	2075
2073	2078	2021	2073
2072	2079	2021	2072
2072	2079	2023	2071
2073	2079	2023	2071
2073	2078	2022	2071
2071	2078	2025	2071
2072	2078	2025	2070
2072	2079	2024	2071
2070	2078	2026	2072
2070	2077	2028	2071
2071	2077	2032	2071
2071	2078	2037	2072
2071	2077	2040	2072
2071	2076	2043	2072
2071	2077	2047	2071
2070	2077	2052	2071
2071	2077	2055	2070
2071	2076	2060	2070
2071	2076	2063	2070
2071	2076	2065	2069
2071	2076	2069	2069
2072	2076	2074	2069
2073	2074	2076	2069
2074	2073	2078	2069
2072	2073	2080	2069
2070	2073	2080	2068
2070	2073	2080	2069
2070	2073	2081	2068
2069	2072	2081	2068
2069	2071	2081	2068
2069	2072	2083	2069
2069	2072	2083	2069
2068	2072	2082	2068
2069	2073	2081	2066
2069	2074	2081	2065
2068	2073	2081	2066
2067	2072	2081	2066
2067	2072	2082	2067
2066	2073	2081	2066
2065	2073	2081	2065
2066	2074	2081	2065
2065	2074	2080	2066
2066	2075	2080	2065
2066	2077	2078	2063
2064	2077	2078	2063
2064	2077	2078	2062
2063	2076	2076	2062
2064	2076	2077	2062
2063	2075	2078	2061
2064	2076	2078	2062
2064	2076	2078	2062
2062	2075	2080	2062
2061	2073	2081	2062
2062	2072	2080	2064
2060	2073	2079	2065
2060	2073	2080	2065
2061	2073	2080	2067
2059	2073	2080	2068
2058	2073	2079	2071
2060	2073	2080	2072
2059	2073	2081	2073
2057	2073	2081	2072
2057	2073	2082	2073
2057	2074	2080	2074
2057	2076	2080	2074
2059	2074	2081	2075
2060	2073	2082	2076
2059	2074	2081	2079
2060	2074	2080	2085
2060	2073	2081	2090
2060	2074	2082	2091
2061	2074	2083	2092
2061	2071	2083	2097
2061	2072	2083	2102
2062	2072	2084	2101
2062	2071	2083	2097
2062	2072	2082	2095
2063	2073	2082	2096
2063	2072	2084	2094
2063	2071	2084	2091
2061	2073	2082	2090
2062	2073	2083	2089
2063	2072	2084	2087
2063	2072	2084	2087
2063	2072	2083	2087
2063	2072	2083	2086
2062	2073	2084	2085
2063	2072	2084	2082
2063	2072	2085	2080
2065	2072	2086	2080
2065	2072	2084	2081
2065	2071	2083	2083
2065	2072	2082	2082
2066	2073	2082	2080
2066	2072	2083	2079
2067	2071	2084	2080
2067	2071	2084	2080
2066	2071	2086	2077
2069	2072	2084	2076
2070	2071	2084	2075
2070	2072	2085	2073
2070	2071	2086	2071
2070	2071	2087	2070
2071	2071	2088	2071
2070	2071	2088	2070
2072	2071	2087	2069
2073	2071	2087	2070
2071	2070	2087	2071
2072	2069	2087	2068
2073	2069	2087	2067
2073	2069	2087	2068
2073	2070	2087	2068
2074	2070	2088	2066
2075	2070	2087	2066
2074	2071	2088	2067
2074	2072	2089	2067
2074	2072	2090	2066
2073	2072	2089	2065
2074	2072	2088	2065
2075	2071	2087	2066
2072	2070	2088	2065
2074	2072	2088	2065
2074	2072	2089	2064
2074	2072	2089	2064
2073	2071	2088	2063
2074	2071	2088	2063
2075	2072	2089	2063
2074	2073	2088	2064
2075	2073	2086	2065
2075	2074	2087	2065
2075	2073	2086	2065
2076	2073	2086	2065
2076	2073	2087	2064
2076	2074	2086	2063
2077	2074	2084	2063
2078	2073	2084	2062
2077	2073	2084	2062
2075	2073	2085	2063
2076	2073	2086	2062
2075	2072	2086	2062
2074	2071	2082	2063
2073	2072	2083	2063
2073	2072	2084	2064
2075	2070	2085	2064
2074	2070	2086	2065
2074	2072	2086	2065
2075	2072	2084	2066
2074	2072	2083	2065
2074	2074	2084	2065
2074	2074	2083	2064
2073	2074	2083	2063
2074	2074	2083	2062
2075	2077	2083	2062
2075	2079	2083	2063
2076	2078	2082	2063
2076	2079	2081	2064
2076	2080	2081	2064
2076	2080	2082	2064
2075	2081	2081	2064
2075	2080	2081	2064
2074	2081	2082	2063
2075	2079	2082	2062
2075	2079	2081	2063
2074	2080	2078	2063
2075	2082	2079	2064
2076	2083	2079	2065
2076	2083	2079	2063
2075	2083	2082	2063
2075	2081	2082	2064
2075	2081	2078	2064
2075	2081	2077	2064
2075	2081	2077	2065
2075	2080	2076	2064
2076	2080	2076	2063
2077	2080	2076	2063
2077	2080	2076	2064
2075	2080	2074	2063
2075	2079	2076	2063
2077	2079	2075	2065
2077	2078	2075	2064
2074	2077	2074	2063
2074	2076	2073	2064
2075	2074	2072	2063
2075	2071	2073	2061
2075	2069	2072	2063
2075	2065	2072	2064
2075	2063	2072	2064
2074	2062	2072	2064
2075	2059	2070	2064
2077	2058	2070	2064
2078	2053	2071	2061
2077	2049	2069	2062
2078	2044	2069	2063
2080	2041	2069	2063
2080	2040	2068	2063
2079	2034	2067	2063
2079	2029	2068	2063
2079	2025	2068	2061
2078	2021	2066	2060
2078	2016	2067	2061
2078	2010	2067	2062
2079	2006	2065	2062
2078	2002	2066	2061
2077	1998	2066	2062
2077	1998	2064	2062
